Date,Open,High,Low,Close,Volume,OpenInt
2015-03-04,202.87,206.49,202.87,203.83,2006,0
2015-03-05,204.56,204.56,204.56,204.56,1445,0
2015-03-06,203.83,206.73,203.83,206.73,9368,0
2015-03-09,204.8,204.8,204.8,204.8,441,0
2015-03-10,205.76,205.76,205.76,205.76,10981,0
2015-03-11,207.21,207.21,206.25,206.73,687,0
2015-03-12,208.67,208.67,208.67,208.67,367,0
2015-03-13,212.04,212.04,208.67,208.67,380,0
2015-03-16,208.67,213.49,207.94,208.67,13316,0
2015-03-17,208.67,208.67,207.7,207.7,417,0
2015-03-18,208.67,211.33,208.67,209.63,6982,0
2015-03-19,209.63,210.83,209.63,210.6,35415,0
2015-03-20,213.74,215.19,213.74,215.19,21283,0
2015-03-23,215.67,216.4,211.56,215.67,5416,0
2015-03-24,211.81,214.94,209.63,209.63,28029,0
2015-03-25,213.97,215.67,209.63,209.63,11785,0
2015-03-26,208.9,208.9,207.94,207.94,15710,0
2015-03-27,208.22,208.22,206.73,206.73,14993,0
2015-03-30,207.7,209.39,206.73,206.97,41187,0
2015-03-31,207.26,210.12,206.97,207.7,51408,0
2015-04-01,209.3,209.3,207.21,209.15,15875,0
2015-04-02,206.97,209.18,206.97,209.18,9772,0
2015-04-07,210.29,210.6,208.52,208.54,6911,0
2015-04-08,208.9,212.17,208.67,209.15,34690,0
2015-04-09,209.27,210.6,209.27,210.01,5372,0
2015-04-10,213.26,213.26,208.67,208.67,17711,0
2015-04-13,210.35,213.49,210.35,210.6,71062,0
2015-04-14,213.38,214.22,207.7,207.7,46079,0
2015-04-15,209.63,212.29,207.7,209.63,179187,0
2015-04-16,208.94,211.55,208.94,211.55,14595,0
2015-04-17,209.95,210.15,209.9,210.06,8435,0
2015-04-20,208.19,208.67,205.76,205.76,42234,0
2015-04-21,208.67,211.56,208.67,211.56,134701,0
2015-04-22,210.88,211.08,209.63,209.87,23823,0
2015-04-23,209.96,211.61,208.67,208.67,35200,0
2015-04-24,208.67,210.02,206.73,206.73,24656,0
2015-04-27,208.58,210.6,208.03,209.63,25742,0
2015-04-28,209.39,209.39,205.28,205.28,36210,0
2015-04-29,205.58,206.73,204.85,204.85,28844,0
2015-04-30,204.08,205.53,201.66,201.66,53112,0
2015-05-01,201.42,202.61,201.42,201.9,30091,0
2015-05-05,202.87,202.87,201.5,202.14,32969,0
2015-05-06,201.6,202.93,200.21,200.21,29191,0
2015-05-07,201.14,201.14,198.28,198.28,34695,0
2015-05-08,199.48,199.7,198.04,198.04,17291,0
2015-05-11,199.98,199.98,199.37,199.73,2525,0
2015-05-12,199.42,199.69,194.35,196.11,38694,0
2015-05-13,196.11,196.11,194.18,194.18,33134,0
2015-05-14,194.18,194.97,193.87,194.61,23919,0
2015-05-15,195.14,195.14,193.45,193.45,7860,0
2015-05-18,194.72,195.14,192.14,193.21,33091,0
2015-05-19,193.69,196.96,193.45,196.11,17650,0
2015-05-20,198.04,198.04,196.28,197.17,17697,0
2015-05-21,197.07,197.49,197.07,197.07,5098,0
2015-05-22,198.52,198.52,198.52,198.52,1174,0
2015-05-26,199,199.98,198.04,199.98,31355,0
2015-05-27,199.42,199.43,198.52,198.52,5851,0
2015-05-28,198.52,198.52,196.83,197.74,24223,0
2015-05-29,196.88,198.04,196.83,198.04,21807,0
2015-06-01,197.1,199.18,197.1,198.04,24754,0
2015-06-02,197.58,198.28,196.11,197.55,56868,0
2015-06-03,196.35,198.2,196.11,198.2,12505,0
2015-06-04,198.12,198.12,196.59,197.32,4198,0
2015-06-05,198.52,198.52,196.59,196.59,16170,0
2015-06-08,196.72,197.56,196.11,196.11,23157,0
2015-06-09,195.71,195.71,194.12,194.12,5139,0
2015-06-10,195.62,195.62,193.21,193.21,13268,0
2015-06-11,195.62,201.9,193.45,195.62,57525,0
2015-06-12,197.61,198.04,195.38,195.38,11455,0
2015-06-15,199.73,199.73,193.21,193.21,9279,0
2015-06-16,196.59,196.59,193.21,193.21,8103,0
2015-06-17,195.24,195.24,190.31,191.75,30993,0
2015-06-18,192.33,192.33,190.31,192.24,9451,0
2015-06-19,192.24,192.24,190.31,191.27,13590,0
2015-06-22,192.24,192.48,190.07,192.48,38390,0
2015-06-23,190.57,192.24,190.55,191.75,10289,0
2015-06-24,190.55,191.98,190.07,190.07,18048,0
2015-06-25,190.31,193.21,190.1,193.21,12350,0
2015-06-26,189.83,192.24,188.38,192.24,27018,0
2015-06-29,188.38,188.76,186.16,188.38,5135,0
2015-06-30,185.48,190.79,185.48,187.9,20720,0
2015-07-01,192.2,192.68,189.34,189.34,3245,0
2015-07-02,193.78,193.78,190.55,190.55,6690,0
2015-07-03,193.6,193.6,189.34,191.27,4013,0
2015-07-06,186.45,189.83,185.72,189.3,10416,0
2015-07-07,185.48,190.31,185.48,185.48,24250,0
2015-07-08,181.76,186.39,181.61,183.54,28042,0
2015-07-09,185.97,188.86,185.48,185.48,16611,0
2015-07-10,186.45,196.11,186.45,195.14,66531,0
2015-07-13,192.37,196.11,191.01,196.11,13867,0
2015-07-14,193.92,194.18,190.79,190.84,12320,0
2015-07-15,190.31,193.21,188.86,188.86,16328,0
2015-07-16,191.97,192.24,189.34,191.31,23496,0
2015-07-17,190.31,193.48,189.34,189.34,10441,0
2015-07-20,189.34,193.21,189.34,191.52,42510,0
2015-07-21,190.31,192.18,189.34,191.75,13946,0
2015-07-22,188.43,191.2,188.38,188.62,6662,0
2015-07-23,188.43,192.25,188.43,188.86,1808,0
2015-07-24,191.43,191.43,187.41,187.41,19013,0
2015-07-27,186.45,187.65,185.48,187.58,26096,0
2015-07-28,185.48,185.82,183.06,183.06,63847,0
2015-07-29,186.81,186.81,185,185.23,14312,0
2015-07-30,185,187.6,184.51,184.51,17877,0
2015-07-31,184.51,187.43,184.51,184.51,9127,0
2015-08-03,185.97,187.78,184.93,187.43,21019,0
2015-08-04,188.86,189.83,185.07,189.11,51770,0
2015-08-05,185.72,188.62,185.48,185.72,27665,0
2015-08-06,185.48,188.57,185.48,185.48,20943,0
2015-08-07,186.93,190.32,186.45,187.75,10345,0
2015-08-10,187.4,189.71,186.88,188.86,9015,0
2015-08-11,186.64,188.38,185.97,187.4,18069,0
2015-08-12,187.68,187.68,182.58,182.58,45076,0
2015-08-13,183.06,186.33,183.06,186.14,12613,0
2015-08-14,183.11,184.51,181.61,181.61,26057,0
2015-08-17,181.61,183.54,181.38,181.5,89045,0
2015-08-18,180.17,180.2,176.54,178.72,41251,0
2015-08-19,178.89,180.17,175.58,175.58,19352,0
2015-08-20,173.89,176.24,173.89,176.24,18930,0
2015-08-21,173.89,173.89,167.12,167.12,63099,0
2015-08-24,163.26,166.16,158.43,165.91,127307,0
2015-08-25,157.7,170.46,157.7,169.66,32906,0
2015-08-26,164.23,167.91,164.23,164.47,33035,0
2015-08-27,169.05,174.07,169.05,174.07,27527,0
2015-08-28,173.89,174.73,171.47,171.71,75187,0
2015-09-01,170.51,170.99,166.64,170.99,82773,0
2015-09-02,171.96,172.27,170.03,172.13,52001,0
2015-09-03,172.92,174.53,172.92,172.92,60726,0
2015-09-04,172.44,174.07,169.05,169.05,78760,0
2015-09-07,170.75,172.81,170.05,172.19,40324,0
2015-09-08,172.68,175.33,172.68,174.85,68598,0
2015-09-09,178.72,180.65,178.72,179.69,47918,0
2015-09-10,180.65,180.65,177.76,177.76,8971,0
2015-09-11,179.87,179.87,178.11,178.11,20361,0
2015-09-14,176.78,179.69,174.85,175.33,41206,0
2015-09-15,177.76,178.72,174.85,176.3,20308,0
2015-09-16,178.72,179.17,177.04,178.39,47303,0
2015-09-17,178.56,178.96,178.56,178.96,9187,0
2015-09-18,177.76,177.76,173.4,173.4,57765,0
2015-09-21,174.85,176.3,173.89,174.13,33971,0
2015-09-22,174.85,176.06,172.44,172.44,13092,0
2015-09-23,173.89,173.89,172.44,172.44,30838,0
2015-09-24,173.89,174.57,170.99,171.71,28716,0
2015-09-25,173.89,173.89,171.71,171.71,24129,0
2015-09-28,172.19,172.19,170.56,170.93,6944,0
2015-09-29,168.82,169.54,167.61,169.54,24299,0
2015-09-30,170.03,172.44,170.03,171.96,32972,0
2015-10-01,174.13,175.53,173.89,174.85,62132,0
2015-10-02,176.28,176.44,172.22,173.16,38692,0
2015-10-05,173.89,178.24,173.89,177.99,34113,0
2015-10-06,174.37,178.72,174.37,176.78,32296,0
2015-10-07,177.21,181.4,177.21,180.65,105224,0
2015-10-08,179.26,181.52,179.26,181.47,7798,0
2015-10-09,180.3,182.57,180.3,180.63,10004,0
2015-10-12,179.2,183.54,179.2,179.44,7846,0
2015-10-13,179.42,183.06,179.42,180.28,13576,0
2015-10-14,182.24,182.86,178.72,182.14,11367,0
2015-10-15,183.51,183.54,180.17,180.65,26307,0
2015-10-16,181.38,182.5,181.31,181.31,5872,0
2015-10-19,183.39,183.39,180.7,183.14,9326,0
2015-10-20,185,185,180.17,181.1,9328,0
2015-10-21,181.15,184.11,180.17,180.17,3977,0
2015-10-22,180.17,183.79,180.17,182.64,8218,0
2015-10-23,183.98,184.27,181.56,182.46,26922,0
2015-10-26,184.13,184.76,183.06,184.51,26785,0
2015-10-27,184.51,184.51,182.04,183.54,92312,0
2015-10-28,182.62,183.79,182.34,183.54,38904,0
2015-10-29,183.93,183.93,181.66,182.58,17263,0
2015-10-30,182.79,182.79,181.31,181.31,3688,0
2015-11-02,182.83,183.67,181.13,183.54,10829,0
2015-11-03,182.45,185,182.45,184.33,22301,0
2015-11-04,185.64,185.96,185.6,185.6,4183,0
2015-11-05,185.97,185.97,182.83,182.83,17593,0
2015-11-06,185.48,186.19,185.48,186.03,9414,0
2015-11-09,185.57,185.57,182.58,182.83,9196,0
2015-11-10,183.74,183.74,181.61,181.86,47663,0
2015-11-11,182.33,183.29,180.89,181.61,16275,0
2015-11-12,182.58,182.58,181.42,181.42,8780,0
2015-11-13,180.29,181.4,179.69,179.69,12068,0
2015-11-16,177.76,180.65,176.78,180.65,98556,0
2015-11-17,179.69,181.74,179.69,180.17,39147,0
2015-11-18,179.69,182.58,179.69,181.6,7341,0
2015-11-19,180.38,182.34,180.38,182,17556,0
2015-11-20,182.58,184.09,182,184.09,16752,0
2015-11-23,184.27,184.51,183.54,183.54,13025,0
2015-11-24,183.54,184.27,182.96,183.54,156118,0
2015-11-25,183.31,184.94,183.31,184.57,2738,0
2015-11-26,184.51,184.9,184.14,184.9,14933,0
2015-11-27,184.64,184.81,183.06,183.64,14357,0
2015-11-30,183.48,184.76,182.58,183.54,54465,0
2015-12-01,184.66,185,183.49,185,11887,0
2015-12-02,185.48,187.17,185.48,185.48,76605,0
2015-12-03,186.68,186.68,185.42,185.57,3472,0
2015-12-04,181.61,184.81,181.61,184.81,7313,0
2015-12-07,184.27,185.13,181.61,183.06,63657,0
2015-12-08,182.81,184.51,182.1,182.1,10899,0
2015-12-09,184.51,184.51,181.61,184.51,15727,0
2015-12-10,181.13,182.58,181.13,182.58,27570,0
2015-12-11,181.08,181.61,180.4,180.4,20793,0
2015-12-14,179.92,181.61,179.92,180.65,25243,0
2015-12-15,181.61,181.61,180.86,181.61,13170,0
2015-12-16,183.54,183.54,181.85,183.06,9814,0
2015-12-17,185.48,185.48,182.89,183.54,9648,0
2015-12-18,180.89,185.48,180.89,185.48,159464,0
2015-12-21,182.1,184.5,182.1,183.54,12343,0
2015-12-22,181.61,185.06,181.61,184.51,12449,0
2015-12-23,182.58,185.48,182.58,184.03,18828,0
2015-12-24,183.06,184.51,182.83,183.67,27629,0
2015-12-29,182.1,184.51,182.1,183.54,37178,0
2015-12-30,182.1,183.79,182.1,183.79,18183,0
2015-12-31,181.86,184.03,181.86,183.54,35599,0
2016-01-04,180.65,180.65,177.27,180.65,92707,0
2016-01-05,179.69,181.61,179.33,180.65,38696,0
2016-01-06,178.24,182.58,178.24,181.61,60444,0
2016-01-07,175.82,179.69,175.82,179.69,119268,0
2016-01-08,179.69,180.4,179.69,179.92,51454,0
2016-01-11,179.69,179.69,176.24,179.69,36279,0
2016-01-12,178.72,180.65,175.93,177.76,26384,0
2016-01-13,180.65,184.51,180.65,184.51,63541,0
2016-01-14,180.17,182.58,180.17,180.65,51331,0
2016-01-15,180.4,182.54,179.35,180.4,177676,0
2016-01-18,180.65,180.65,177.82,180.65,34662,0
2016-01-19,179.2,185.44,179.2,182.34,89872,0
2016-01-20,179.69,180.17,177.42,177.76,63655,0
2016-01-21,178.96,181.61,175.55,180.17,47986,0
2016-01-22,184.99,185.48,181.44,182.58,24867,0
2016-01-25,185.48,185.48,181.61,183.54,32411,0
2016-01-26,177.27,183.12,177.27,182.58,66869,0
2016-01-27,182.58,184.51,180.4,182.58,71672,0
2016-01-28,184.51,187.05,183.06,185,44227,0
2016-01-29,187.41,192.73,185.48,192.73,43504,0
2016-02-01,190.31,192.73,189.85,190.31,27767,0
2016-02-02,189.34,191.25,188.13,188.98,194726,0
2016-02-03,184.51,187.41,184.51,185.48,108179,0
2016-02-04,187.41,189.34,186.98,187.41,34963,0
2016-02-05,187.41,188.85,187.41,187.41,127440,0
2016-02-08,184.51,188.01,184.03,185.72,76776,0
2016-02-09,184.03,185.48,181.13,182.1,22637,0
2016-02-10,182.34,185.92,181.13,182.34,64942,0
2016-02-11,179.69,183.51,179.69,181.13,41611,0
2016-02-12,179.2,182.02,178.72,178.72,30520,0
2016-02-15,181.61,183.55,181.61,181.61,36983,0
2016-02-16,186.45,186.45,182.34,184.03,69482,0
2016-02-17,185.24,186.45,182.48,183.31,81132,0
2016-02-18,186.45,187.9,186.45,186.68,50854,0
2016-02-19,187.9,187.9,187.21,187.9,21888,0
2016-02-22,187.9,191.27,186.56,191.27,47253,0
2016-02-23,187.41,191.27,186.97,191.27,59736,0
2016-02-24,190.31,190.31,186.5,190.31,42394,0
2016-02-25,190.31,190.31,188.04,190.31,41046,0
2016-02-26,190.07,192.24,188.38,192,26660,0
2016-02-29,188.38,193.21,188.38,192.73,54707,0
2016-03-01,193.21,195.62,191.75,195.62,76769,0
2016-03-02,196.11,198.04,194.66,197.07,100279,0
2016-03-03,196.11,197.55,195.14,197.07,57544,0
2016-03-04,198.04,198.52,194.9,198.52,35410,0
2016-03-07,199,199,194.9,199,70889,0
2016-03-08,193.69,196.11,193.69,195.14,23014,0
2016-03-09,195.14,198.04,193.21,198.04,38158,0
2016-03-10,198.04,198.04,191.75,193.21,46417,0
2016-03-11,194.18,194.18,192.24,194.18,86360,0
2016-03-14,194.18,196.11,193.21,193.21,60454,0
2016-03-15,195.14,195.14,193.31,194.66,37961,0
2016-03-16,195.14,198.04,194.53,197.07,119879,0
2016-03-17,199,199.98,196.69,197.07,66812,0
2016-03-18,199.98,200.46,197.8,199.98,88547,0
2016-03-21,199.98,199.98,197.83,199.98,21854,0
2016-03-22,200.94,201.9,197.85,201.9,35146,0
2016-03-23,200.94,202.87,198.04,202.87,64359,0
2016-03-24,198.04,200.46,195.38,195.38,19452,0
2016-03-29,200.94,200.94,194.71,195.14,30508,0
2016-03-30,195.38,199.98,195.38,195.38,99820,0
2016-03-31,197.07,199,195.42,196.11,22274,0
2016-04-01,195.86,197.85,195.62,197.55,40543,0
2016-04-04,197.07,200.55,195.86,197.07,84848,0
2016-04-05,196.01,199,195.41,195.62,29725,0
2016-04-06,192.24,198.04,192.24,196.11,65241,0
2016-04-07,198.86,199.81,194.92,198.86,66119,0
2016-04-08,198.86,201.32,198.86,200.34,39632,0
2016-04-11,199.36,201.82,198.92,200.59,17306,0
2016-04-12,200.83,201.82,198.76,200.09,46984,0
2016-04-13,202.8,204.77,201.57,203.17,39785,0
2016-04-14,203.79,205.51,202.47,203.79,78402,0
2016-04-15,205.75,205.85,202.88,204.03,43500,0
2016-04-18,200.34,202.31,200.34,201.32,38455,0
2016-04-19,203.29,207.63,199.85,206.37,102945,0
2016-04-20,202.8,207.72,202.8,205.75,76447,0
2016-04-21,207.72,208.71,206.54,207.48,49362,0
2016-04-22,208.71,208.71,205.75,206,56298,0
2016-04-25,204.77,207.77,203.84,204.77,45591,0
2016-04-26,203.29,204.12,201.57,202.43,42608,0
2016-04-27,202.31,203.71,202.23,202.31,71378,0
2016-04-28,201.82,203,200.83,201.82,27219,0
2016-04-29,200.83,201.82,200.83,200.83,55593,0
2016-05-03,199.85,201.56,199.36,200.34,76618,0
2016-05-04,198.99,200.44,198.99,199.6,21698,0
2016-05-05,198.37,200.09,198.08,198.86,18685,0
2016-05-06,199.5,199.5,199.36,199.36,17829,0
2016-05-09,199.45,200.34,198.17,199.85,59600,0
2016-05-10,202.31,202.31,196.89,197.14,20820,0
2016-05-11,200.83,200.83,197.37,200.83,25982,0
2016-05-12,201.82,201.82,197.14,199.85,11272,0
2016-05-13,200.59,200.59,197.25,200.59,11645,0
2016-05-16,200.83,201.71,199.06,201.32,31335,0
2016-05-17,201.14,201.82,200.94,201.32,34209,0
2016-05-18,201.32,202.8,197,197.88,51685,0
2016-05-19,196.89,198.35,196.16,197.88,22622,0
2016-05-20,199.85,199.85,196.27,198.37,14554,0
2016-05-23,197.88,198.51,196.16,198.25,14929,0
2016-05-24,195.91,198.86,194.19,194.19,39707,0
2016-05-25,197.88,199.85,197.14,198.86,86409,0
2016-05-26,199.36,199.85,198.86,199.85,32020,0
2016-05-27,199.85,199.85,196.89,199.85,49937,0
2016-05-31,199.85,201.82,197.19,201.82,33297,0
2016-06-01,200.83,203.79,200.83,203.79,26503,0
2016-06-02,200.83,202.8,200.83,202.8,33299,0
2016-06-03,201.82,202.31,199.11,202.31,11003,0
2016-06-06,203.79,204.77,203.79,203.79,36047,0
2016-06-07,205.75,205.75,201.82,203.79,63375,0
2016-06-08,204.77,205.75,204.67,205.75,46883,0
2016-06-09,208.22,209.2,203.05,209.2,12581,0
2016-06-10,205.75,205.75,204.27,205.75,33019,0
2016-06-13,200.34,205.75,200.34,201.08,39011,0
2016-06-14,201.08,202.6,197.88,197.88,25692,0
2016-06-15,197.14,201.32,197.14,198.86,32156,0
2016-06-16,199.85,199.85,196.89,196.89,16390,0
2016-06-17,196.89,199.85,196.89,198.37,14407,0
2016-06-20,203.79,205.75,199.85,201.57,67740,0
2016-06-21,201.57,201.62,199.36,201.57,35456,0
2016-06-22,199.36,201.62,199.36,199.36,8852,0
2016-06-23,199.36,202.8,199.36,199.85,28758,0
2016-06-24,194.92,202.06,192.46,200.83,60269,0
2016-06-27,200.83,203.79,198.86,198.86,16402,0
2016-06-28,200.83,211.41,200.28,206.98,154554,0
2016-06-29,210.68,217.08,210.62,216.83,17615,0
2016-06-30,211.66,217.08,210.18,212.65,19036,0
2016-07-01,213.14,217.57,213.14,217.57,24483,0
2016-07-04,217.67,217.67,214.37,216.34,34172,0
2016-07-05,214.61,217.2,214.61,214.61,40389,0
2016-07-06,214.65,217.68,214.61,216.34,54145,0
2016-07-07,214.86,218.17,214.86,214.86,19305,0
2016-07-08,215.6,218.81,212.65,212.65,45137,0
2016-07-11,219.54,222.49,219.54,222.49,80952,0
2016-07-12,222.49,224.46,222.49,223.84,38240,0
2016-07-13,221.51,224.46,220.82,224.09,43315,0
2016-07-14,226.92,229.33,224.95,226.8,43963,0
2016-07-15,221.51,228.85,220.52,224.95,62942,0
2016-07-18,224.46,228.34,223.47,224.46,19391,0
2016-07-19,223.23,229.38,222.49,223.47,28683,0
2016-07-20,227.41,229.82,224.93,225.94,37974,0
2016-07-21,228.64,229.79,222.79,228.64,26518,0
2016-07-22,225.84,229.38,224.46,227.9,19537,0
2016-07-25,230.37,230.86,226.18,230.86,66189,0
2016-07-26,233.32,234.3,232.14,233.81,23029,0
2016-07-27,229.38,233.81,229.38,229.38,25950,0
2016-07-28,233.32,234.3,230.37,234.3,21228,0
2016-07-29,234.3,234.3,231.35,231.84,48889,0
2016-08-01,234.3,234.3,231.84,232.46,26921,0
2016-08-02,231.35,236.27,231.35,231.35,44704,0
2016-08-03,234.8,234.8,231.07,234.8,35592,0
2016-08-04,237.26,237.26,232.93,233.2,60777,0
2016-08-05,231.35,235.29,231.35,233.81,10694,0
2016-08-08,235.29,236.27,234.3,235.29,27436,0
2016-08-09,238.24,242.18,238.24,242.18,75315,0
2016-08-10,242.18,243.66,238.87,239.23,36097,0
2016-08-11,244.15,246.06,240.21,240.21,25086,0
2016-08-12,246.12,248.09,244.35,246.12,39366,0
2016-08-15,248.09,248.09,243.41,248.09,41025,0
2016-08-16,248.09,249.07,245.87,246.36,27841,0
2016-08-17,249.07,249.07,243.95,247.35,28135,0
2016-08-18,244.15,248.58,242.18,245.13,56685,0
2016-08-19,249.07,253.01,246.12,246.12,49828,0
2016-08-22,246.12,247.72,243.16,244.15,20578,0
2016-08-23,249.07,249.07,244.64,244.64,26179,0
2016-08-24,243.66,247.71,242.18,242.92,35560,0
2016-08-25,248.58,248.58,243.41,243.41,29170,0
2016-08-26,243.16,247.79,243.16,245.13,35456,0
2016-08-30,249.81,249.81,244.64,244.64,41470,0
2016-08-31,250.06,251.04,245.63,248.58,54588,0
2016-09-01,250.06,251.04,245.87,245.87,19024,0
2016-09-02,250.79,250.79,246.12,246.12,94959,0
2016-09-05,247.1,251.04,242.18,245.13,33968,0
2016-09-06,251.78,251.78,247.1,247.1,25160,0
2016-09-07,247.1,250.14,244.64,244.64,25861,0
2016-09-08,251.53,251.53,244.39,244.39,23413,0
2016-09-09,244.15,248.07,241.19,241.19,88818,0
2016-09-12,239.23,239.23,232.09,232.33,24572,0
2016-09-13,234.3,238.44,234.3,234.3,42439,0
2016-09-14,238,239.22,234.45,238.49,51176,0
2016-09-15,239.23,241.44,239.23,240.21,31378,0
2016-09-16,241.19,248.82,239.82,247.84,134603,0
2016-09-19,247.1,248.09,246.18,248.09,40877,0
2016-09-20,248.09,251.04,247.58,251.04,42466,0
2016-09-21,246.61,251.04,246.12,250.55,26766,0
2016-09-22,246.61,251.04,246.36,248.09,41263,0
2016-09-23,250.63,251.44,248.95,249.81,33037,0
2016-09-26,248.82,250.3,248.09,249.56,56232,0
2016-09-27,252.02,252.02,248.09,252.02,12156,0
2016-09-28,248.09,251.04,248.09,248.09,32694,0
2016-09-29,248.09,251.2,248.09,250.06,16322,0
2016-09-30,250.06,251.53,249.07,250.3,74520,0
2016-10-03,251.53,253.01,249.12,253.01,43685,0
2016-10-04,253.01,261.87,251.04,251.04,93541,0
2016-10-05,255.47,259.9,255.47,256.95,80204,0
2016-10-06,258.92,259.6,258.92,258.92,80251,0
2016-10-07,258.92,260.88,258.92,260.88,75280,0
2016-10-10,261.38,262.85,258.92,262.85,129816,0
2016-10-11,258.92,261.37,258.92,258.92,51803,0
2016-10-12,258.92,261.37,258.92,258.92,19336,0
2016-10-13,258.92,261.87,254.49,254.49,73684,0
2016-10-14,260.88,262.11,260.88,260.88,41223,0
2016-10-17,260.88,262.66,260.88,260.88,41040,0
2016-10-18,262.85,265.81,260.88,263.35,54305,0
2016-10-19,260.88,262.95,259.9,259.9,29714,0
2016-10-20,259.9,262.56,259.9,260.88,51099,0
2016-10-21,260.88,262.66,260.88,261.87,19289,0
2016-10-24,261.87,266.3,261.38,263.84,103512,0
2016-10-25,266.79,266.79,262.85,263.96,90606,0
2016-10-26,266.79,266.79,262.36,262.48,10989,0
2016-10-27,263.28,263.28,260.64,261.38,37844,0
2016-10-28,262.85,262.85,259.9,262.85,26328,0
2016-10-31,259.9,262.85,257.93,257.93,32310,0
2016-11-01,258.92,262.85,255.96,256.45,29678,0
2016-11-02,259.9,259.9,254.24,255.22,39027,0
2016-11-03,254.98,255.16,250.55,250.55,31848,0
2016-11-04,246.12,250.94,246.12,248.09,30473,0
2016-11-07,253.99,253.99,249.12,251.9,37988,0
2016-11-08,249.07,253.49,249.07,251.53,22339,0
2016-11-09,246.12,248.09,246.12,248.09,80814,0
2016-11-10,249.07,253.17,246.12,249.07,60804,0
2016-11-11,246.12,247.96,242.11,244.15,84065,0
2016-11-14,244.15,246.12,240.79,246.12,73586,0
2016-11-15,244.15,247.35,244.15,244.39,21159,0
2016-11-16,244.15,246.71,242.67,243.41,26885,0
2016-11-17,243.41,245.38,243.41,243.41,8795,0
2016-11-18,243.41,245.87,243.41,245.13,19821,0
2016-11-21,246.12,246.12,243.41,243.41,30830,0
2016-11-22,245.87,245.87,243.16,243.66,52811,0
2016-11-23,246.12,249.89,243.16,249.56,66695,0
2016-11-24,249.07,250.06,249.07,249.56,11983,0
2016-11-25,250.06,250.06,249.04,249.56,25929,0
2016-11-28,249.81,249.81,249.07,249.81,22646,0
2016-11-29,249.07,249.56,246.12,247.1,37492,0
2016-11-30,246.12,247.89,246.12,247.59,59374,0
2016-12-01,246.12,246.9,242.18,245.13,17861,0
2016-12-02,241.19,246.9,241.19,243.9,22421,0
2016-12-05,240.21,247.03,240.21,243.66,4806,0
2016-12-06,240.21,246.12,238.73,239.47,48825,0
2016-12-07,243.16,244.94,243.16,244.64,9093,0
2016-12-08,244.15,246.12,244.15,244.89,26283,0
2016-12-09,244.15,245.63,244.15,244.89,16116,0
2016-12-12,245.87,245.87,244.15,244.89,11088,0
2016-12-13,245.13,245.63,244.15,244.89,40891,0
2016-12-14,244.15,245.5,244.15,244.39,13506,0
2016-12-15,244.89,245.23,244.15,244.15,34966,0
2016-12-16,244.15,246.12,240.21,240.21,56527,0
2016-12-19,244.15,245.46,241.81,244.15,46307,0
2016-12-20,244.15,245.9,244.15,244.15,31822,0
2016-12-21,246.12,246.12,244.15,245.63,53293,0
2016-12-22,245.87,245.87,242.67,242.67,49140,0
2016-12-23,242.92,245.52,242.67,242.67,7136,0
2016-12-28,246.12,249.56,246.12,249.07,40390,0
2016-12-29,249.07,250.55,249.07,249.56,23485,0
2016-12-30,252.02,252.02,250.07,251.53,22067,0
2017-01-03,251.04,253.85,250.11,252.15,65491,0
2017-01-04,253.99,255.96,253.99,255.96,58944,0
2017-01-05,253.99,256.54,253.99,255.96,77101,0
2017-01-06,256.95,258.16,256.95,257.44,29493,0
2017-01-09,257.93,264.33,257.93,264.33,69226,0
2017-01-10,264.33,264.33,261.9,263.47,92864,0
2017-01-11,262.85,264.82,261.17,264.82,90444,0
2017-01-12,262.85,264.82,261.41,263.22,46564,0
2017-01-13,264.82,264.9,261.72,263.1,51285,0
2017-01-16,265.31,266.79,262.98,264.82,49593,0
2017-01-17,266.3,266.3,259.9,259.9,55479,0
2017-01-18,259.9,263.35,259.9,259.9,37057,0
2017-01-19,262.85,262.85,260.88,261.13,30269,0
2017-01-20,262.36,263.35,259.9,261.75,43568,0
2017-01-23,262.85,262.85,260.07,262.61,21934,0
2017-01-24,260.07,263.35,260.07,262.11,12917,0
2017-01-25,259.9,263.35,257.93,260.88,62688,0
2017-01-26,261.62,263.79,260.81,261.62,7338,0
2017-01-27,262.16,264.23,260.49,261.62,18476,0
2017-01-30,264.33,264.33,260.88,262.61,19746,0
2017-01-31,262.85,262.85,260.88,261.87,32079,0
2017-02-01,263.35,263.44,260.81,262.11,30531,0
2017-02-02,259.9,263.47,259.9,262.11,21138,0
2017-02-03,264.08,264.33,261.23,262.61,27567,0
2017-02-06,265.81,267.65,264.82,265.81,27741,0
2017-02-07,263.84,270.73,261.87,264.95,72962,0
2017-02-08,264.08,267.41,263.18,263.84,26985,0
2017-02-09,263.7,267.28,262.85,265.07,10366,0
2017-02-10,267.78,268.76,267.04,268.02,37014,0
2017-02-13,270.4,270.48,267.78,269.25,10414,0
2017-02-14,270.48,270.79,267.78,269.13,77109,0
2017-02-15,271.71,271.71,270.24,270.48,55086,0
2017-02-16,271.22,271.59,270.16,270.98,39400,0
2017-02-17,270.24,271.71,270.24,270.98,28574,0
2017-02-20,271.71,271.71,270.24,270.98,28886,0
2017-02-21,274.42,274.42,271.32,273.44,20114,0
2017-02-22,273.19,273.19,270.61,272.45,42843,0
2017-02-23,273.44,273.44,268.76,270.11,44429,0
2017-02-24,272.45,272.45,267.87,269.87,50904,0
2017-02-27,267.78,273.44,267.78,268.27,39578,0
2017-02-28,273.68,273.68,269.74,269.74,47287,0
2017-03-01,273.68,275.65,270.73,274.17,66257,0
2017-03-02,274.67,275.65,272.85,274.54,61713,0
2017-03-03,271.71,274.57,271.71,274.17,14801,0
2017-03-06,276.39,276.39,272.23,274.54,26750,0
2017-03-07,276.39,277.87,275.41,275.41,70063,0
2017-03-08,275.41,277.87,275.41,277.13,26842,0
2017-03-09,276.14,276.14,272.7,273.81,38120,0
2017-03-10,278.11,278.11,272.94,274.54,66405,0
2017-03-13,277.37,277.37,274.67,276.27,83225,0
2017-03-14,277.62,279.69,275.65,277.74,39059,0
2017-03-15,279.34,279.34,276.28,279.34,28879,0
2017-03-16,281.56,283,277.74,280.57,158115,0
2017-03-17,279.84,283.03,279.84,282.54,48825,0
2017-03-20,283.03,283.03,280.21,283.03,63345,0
2017-03-21,282.79,282.82,278.6,280.2,75745,0
2017-03-22,275.65,280.57,275.65,280.57,42196,0
2017-03-23,276.88,280.57,276.64,279.1,91945,0
2017-03-24,277.62,282.05,277.62,281.07,21639,0
2017-03-27,282.54,282.54,277.91,280.08,32388,0
2017-03-28,279.84,282.54,279.84,281.44,47240,0
2017-03-29,279.59,285.5,279.59,285,76798,0
2017-03-30,282.79,285.5,279.59,279.59,97045,0
2017-03-31,279.59,282.54,279.1,280.57,81827,0
2017-04-03,283.53,284.27,279.1,284.27,83845,0
2017-04-04,284.51,284.51,280.57,283.16,163895,0
2017-04-05,285.25,285.25,283.33,285.25,27779,0
2017-04-06,283,284.5,280,282,75549,0
2017-04-07,283.36,284.511,280.8,281.75,63294,0
2017-04-10,280,284.95,280,281.625,14844,0
2017-04-11,282.5,284.25,280.038,281.75,39492,0
2017-04-12,283.5,283.5,279.575,282.5,62353,0
2017-04-13,280.188,284.991,280,281.875,54688,0
2017-04-18,284.75,284.75,279.8,281.625,176872,0
2017-04-19,280,281,275.133,276.5,84756,0
2017-04-20,275.25,279,275.25,278.75,21141,0
2017-04-21,280,282.9,280,280.25,79031,0
2017-04-24,284,284.5,280,280.25,51727,0
2017-04-25,282.5,285.75,282.5,282.5,49607,0
2017-04-26,286,286,283.5,284.25,47224,0
2017-04-27,284,286,284,284,35593,0
2017-04-28,285.75,286.5,284,284,65056,0
2017-05-02,285.25,290.5,285.25,290,108569,0
2017-05-03,286,289.75,286,288,29895,0
2017-05-04,287,290,286.5,286.5,38250,0
2017-05-05,291,291,287.5,290.75,39618,0
2017-05-08,290.75,290.89,289.125,289.75,52754,0
2017-05-09,290.474,290.89,289.7,290.5,88956,0
2017-05-10,289.5,292.75,289.5,292.75,66510,0
2017-05-11,289.25,295,289.25,294.25,193404,0
2017-05-12,296,297.8,294.02,296.875,70562,0
2017-05-15,299,299,294,295.875,77952,0
2017-05-16,296.5,298,295.3,296.5,60820,0
2017-05-17,293,298,293,296.75,74762,0
2017-05-18,297,297,292,293,41428,0
2017-05-19,293,296,290.5,293.125,32111,0
2017-05-22,291,292.99,289.5,291,131439,0
2017-05-23,291,292.89,290.25,292.375,31008,0
2017-05-24,293,293.75,290,292,88387,0
2017-05-25,297.5,297.5,292.25,294,43744,0
2017-05-26,293,297,292.5,294.75,70835,0
2017-05-30,295.5,295.6,294,294.625,66677,0
2017-05-31,298,298,293.8,294.75,41424,0
2017-06-01,296,296,292,295,55939,0
2017-06-02,296.75,296.75,292.5,292.5,26027,0
2017-06-05,292.75,296.5,292.25,294.25,29194,0
2017-06-06,296.5,296.5,292.1,292.5,55049,0
2017-06-07,297.5,297.5,292.25,294.875,34618,0
2017-06-08,296,299,292.25,297.75,33174,0
2017-06-09,304,307,303.375,307,55010,0
2017-06-12,307.5,307.5,302,304.25,36609,0
2017-06-13,304,309,304,307.75,110535,0
2017-06-14,307.75,308.75,303.5,303.5,61536,0
2017-06-15,309,309,303.5,305,116889,0
2017-06-16,306,310,303.25,305,114900,0
2017-06-19,308,312.75,308,312.25,5042,0
2017-06-20,309.5,314.4,309.5,312.75,4725,0
2017-06-21,311.5,312.875,311.438,312.875,51345,0
2017-06-22,314.5,315.5,311.688,311.75,41548,0
2017-06-23,311,315,310.75,313.75,41051,0
2017-06-26,310.5,316.478,310.5,314.25,56744,0
2017-06-27,315.25,315.25,313,313,48255,0
2017-06-28,309.75,315.996,309,309,72608,0
2017-06-29,315,315,310.338,310.625,57655,0
2017-06-30,308,313.9,308,311,2049,0
2017-07-03,314.75,314.75,310.5,314.5,4324,0
2017-07-04,314,314,314,314,59052,0
2017-07-05,308,312.5,308,312.125,21814,0
2017-07-06,310,314,309.25,309.25,57139,0
2017-07-07,309.8,310.7,308.028,309,51771,0
2017-07-10,310,310.4,309.2,309.5,27765,0
2017-07-11,308.25,309.75,307.035,308.75,74282,0
2017-07-12,312,314.25,312,312.125,42745,0
2017-07-13,315,315.2,313.313,314.25,32940,0
2017-07-14,315,315.223,312.25,313.875,29748,0
2017-07-17,312,317.75,312,316.5,42071,0
2017-07-18,314.25,317,314.25,315.5,37462,0
2017-07-19,318,322,316,322,25335,0
2017-07-20,322,323.8,318.25,318.25,47935,0
2017-07-21,324,324,318,319.625,40701,0
2017-07-24,317.25,323,317.25,323,85301,0
2017-07-25,316.5,322.695,316.5,318.875,66134,0
2017-07-26,323,323,317.75,317.75,90233,0
2017-07-27,321.25,321.25,318,318.25,39304,0
2017-07-28,320,320,317.75,319.25,46582,0
2017-07-31,318.75,319,317.75,317.75,73971,0
2017-08-01,318,322,316.03,317.25,100160,0
2017-08-02,316,318.25,314.75,314.75,84979,0
2017-08-03,314.75,318,314.75,316.5,67139,0
2017-08-04,320,320,315.25,317.625,89457,0
2017-08-07,322,322.49,318,318,38930,0
2017-08-08,320,325,320,323.25,66939,0
2017-08-09,323.75,323.75,323,323.75,52004,0
2017-08-10,322,323.4,318.54,323,126237,0
2017-08-11,318,320.217,314.153,318.5,118332,0
2017-08-14,318,319,318,319,86785,0
2017-08-15,322,322.9,318.913,321.875,76125,0
2017-08-16,324,325,322.75,322.75,58948,0
2017-08-17,322.25,326.68,322.25,323.25,57492,0
2017-08-18,322.25,323.75,322.25,322.25,75117,0
2017-08-21,324.75,326.75,323.3,325.5,65247,0
2017-08-22,327,330.25,326.5,328,84378,0
2017-08-23,331,331.925,326,330.25,48561,0
2017-08-24,332,336.25,332,335.625,178430,0
2017-08-25,335,337.98,335,335.125,109339,0
2017-08-29,333,337.953,331,331,58579,0
2017-08-30,333,335,333,333,74138,0
2017-08-31,336.25,338,334.061,335.75,83326,0
2017-09-01,333.5,338,333,333.625,44615,0
2017-09-04,332.5,337.6,332.5,334,62222,0
2017-09-05,334,338,332,332,70090,0
2017-09-06,332,333.5,332,333.5,83773,0
2017-09-07,333,333.5,332.515,333.125,127559,0
2017-09-08,332.5,334.5,331.75,334.5,66563,0
2017-09-11,331.5,335.6,331.5,332,86135,0
2017-09-12,334.5,335.8,333.75,334,69789,0
2017-09-13,334,335.75,333,333,64638,0
2017-09-14,334,336,329.5,329.5,94523,0
2017-09-15,329,331.723,322.468,322.5,99115,0
2017-09-18,325,329.5,325,327.25,43594,0
2017-09-19,330.5,330.915,328.8,330,42808,0
2017-09-20,328.5,330.25,327,327,57593,0
2017-09-21,326.25,331.1,326.25,330.25,50241,0
2017-09-22,328,330.7,328,328.5,67783,0
2017-09-25,330.5,330.5,326.75,327.5,89551,0
2017-09-26,328,328,325,325,55113,0
2017-09-27,325,327.8,323,323,156566,0
2017-09-28,325,325.8,323.5,323.5,63910,0
2017-09-29,326.5,329.3,326.5,328,51134,0
2017-10-02,330,336,329.995,336,90341,0
2017-10-03,338,338.5,336.5,337.75,66491,0
2017-10-04,339.25,340,337.383,340,37333,0
2017-10-05,340,345,340,344.5,125906,0
2017-10-06,345,347.5,345,345.25,46560,0
2017-10-09,347.75,348,345.5,347.75,78339,0
2017-10-10,345.5,348.49,345.5,346.5,99013,0
2017-10-11,348.5,348.75,347.613,348.5,57156,0
2017-10-12,349.75,354.5,348.538,352.5,91674,0
2017-10-13,353.75,354,351,354,94130,0
2017-10-16,354,354.75,353.075,354.75,126491,0
2017-10-17,355.25,355.35,353.56,354.75,156073,0
2017-10-18,355.5,356.75,355,355.5,81461,0
2017-10-19,356.6,356.6,354.5,355.75,61495,0
2017-10-20,357,357,352,352,42867,0
2017-10-23,354.75,354.75,353,354,53902,0
2017-10-24,352,354.187,352,354,43711,0
2017-10-25,355,355,352.53,353,28179,0
2017-10-26,353,353,352,352,63718,0
2017-10-27,353,354.5,352.748,354.5,78783,0
2017-10-30,354,354,353,354,134201,0
2017-10-31,353.5,353.5,353.5,353.5,62218,0
2017-11-01,356.5,357,354.8,357,78784,0
2017-11-02,356,360.49,356,358.5,55494,0
2017-11-03,358.5,362.59,358.5,361.875,93016,0
2017-11-06,360,363.62,360,362.375,220873,0
2017-11-07,363,367.25,363,366.5,142331,0
2017-11-08,368,369.75,367,369.75,118473,0
2017-11-09,367.5,367.5,367.5,367.5,74368,0
2017-11-10,368,368.5,368,368.5,156647,0
2017-11-13,370,370.75,367.413,367.5,171026,0
2017-11-14,370,371.75,369.61,371.75,117034,0
2017-11-15,369.75,369.75,362.5,363.75,99395,0
2017-11-16,364,367,364,365.375,78112,0
2017-11-17,364.25,367.38,363.6,364,159003,0
2017-11-20,366.5,366.5,362.375,362.375,146421,0
2017-11-21,366.5,369.5,366.25,368,174055,0
2017-11-22,370.5,372,368.5,370.5,89127,0
2017-11-23,369,370.75,367.5,368.75,83750,0
2017-11-24,369,371.25,369,371.25,113168,0
2017-11-27,368.5,370,364,364,60924,0
2017-11-28,366,367,364.125,364.125,98361,0
2017-11-29,363,364,361.5,362.25,93286,0
2017-11-30,361,361,353,354,175258,0
2017-12-01,352,353,351,352.125,6293412,0
2017-12-04,352,353.25,351.5,351.5,86902,0
2017-12-05,350.75,351.75,350.5,351.75,63819,0
2017-12-06,349.5,349.5,347,347,105529,0
2017-12-07,349,349,348.5,349,84627,0
2017-12-08,349.25,349.25,347,348.25,175154,0
2017-12-11,350.5,352.25,350,350,101923,0
2017-12-12,352,353,351,353,93099,0
2017-12-13,354,355,352,355,64852,0
2017-12-14,353.25,354.5,352.75,353.25,89101,0
2017-12-15,355,355.25,352.25,352.25,125010,0
2017-12-18,355,360,354,360,129208,0
2017-12-19,361.75,361.75,358.625,358.625,34685,0
2017-12-20,361.5,362,360.75,360.75,63786,0
2017-12-21,362,362.25,358.25,362.25,80698,0
2017-12-22,360.94,360.94,359.625,359.625,12501,0
2017-12-27,362.5,362.5,359.625,359.625,30781,0
2017-12-28,362.5,362.5,362.5,362.5,38617,0
2017-12-29,362,362,362,362,14249,0
2018-01-02,363,363,362,362.5,51977,0
2018-01-03,364,366.5,360,366.5,69219,0
2018-01-04,368,375,368,372,94052,0
2018-01-05,371,379,371,378,108468,0
2018-01-08,378,382,378,381.5,102169,0
2018-01-09,383,383,381.5,381.5,190903,0
2018-01-10,381,381,379,380,93082,0
2018-01-11,381,381,379.5,379.5,163861,0
2018-01-12,382,382,378,378,155052,0
2018-01-15,382,382,375,375,122302,0
2018-01-16,376,378,376,377.5,304559,0
2018-01-17,378,378,376.5,376.5,60344,0
2018-01-18,379,380,378,378,107206,0
2018-01-19,376,376,376,376,84920,0
2018-01-22,378,378,373,374,116050,0
2018-01-23,374,374,372,372,294564,0
2018-01-24,370,370,369,369,162894,0
2018-01-25,370,370,363,365,192819,0
2018-01-26,363,368,363,367.5,222059,0
2018-01-29,369,371,368,368,112985,0
2018-01-30,368,372,362,362,93975,0
2018-01-31,364,367,364,367,174590,0
2018-02-01,365,366,363,363.5,163620,0
2018-02-02,364,364,363,363,91239,0
2018-02-05,359,359,354,354,213012,0
2018-02-06,347,350,333,349,299718,0
2018-02-07,351,355,351,353.5,211620,0
2018-02-08,352,352,349,349,89064,0
2018-02-09,345,349,340,345.5,159903,0
2018-02-12,349,351,348,351,106865,0
2018-02-13,353,355,351,355,732607,0
2018-02-14,355,358,355,358,155073,0
2018-02-15,359,364,359,364,305814,0
2018-02-16,366,366,360,365,179223,0
2018-02-19,360,363,360,360,105710,0
2018-02-20,357,359,355,355,149448,0
2018-02-21,359,364,359,362.5,236104,0
2018-02-22,358,360,358,359,85408,0
2018-02-23,361,365,361,361.5,158496,0
2018-02-26,366,366,364,364,100649,0
2018-02-27,367,367,366,367,85823,0
2018-02-28,361,365,361,361,88895,0
2018-03-01,363,367,363,366,147477,0
2018-03-02,362,364,361,362,71383,0
2018-03-05,362,364,362,363,92501,0
2018-03-06,364,367,362,367,630486,0
2018-03-07,363,367,363,366,159070,0
2018-03-08,363,365,363,365,291024,0
2018-03-09,368,372,368,371,83175,0
2018-03-12,371,376,371,373,93830,0
2018-03-13,378,378,374,378,190424,0
2018-03-14,375,377,374,374,217418,0
2018-03-15,378,378,372,373,267289,0
2018-03-16,372,372,369,369,182865,0
2018-03-19,371,371,364,364,161744,0
2018-03-20,367,367,364,364,184308,0
2018-03-21,368,368,364,365,95607,0
2018-03-22,361,362,356,358,73613,0
2018-03-23,352,353,350,353,226483,0
2018-03-26,355,355,351,354,102292,0
2018-03-27,356,358,355,357.5,608572,0
2018-03-28,353,353,349,349,77551,0
2018-03-29,351,356,350,354,211250,0
