Date,Open,High,Low,Close,Volume,OpenInt
2009-01-07,16.668,16.668,16.668,16.668,0,0
2009-01-08,16.1,16.384,16.1,16.384,0,0
2009-01-12,16.289,17.426,16.289,16.479,0,0
2009-01-13,16.1,17.426,16.1,17.331,0,0
2009-01-14,17.331,17.805,16.573,17.615,0,0
2009-01-15,16.952,17.615,16.952,16.952,0,0
2009-01-16,16.573,17.331,16.573,16.668,0,0
2009-01-19,17.71,17.71,17.71,17.71,0,0
2009-01-20,16.479,17.047,16.194,17.047,0,0
2009-01-21,17.047,17.047,16.384,16.384,0,0
2009-01-22,16.289,16.763,16.289,16.668,0,0
2009-01-23,16.952,16.952,16.005,16.952,0,0
2009-01-26,17.047,17.047,15.721,15.91,0,0
2009-01-27,15.91,15.91,15.531,15.817,0,0
2009-01-28,15.91,15.91,15.817,15.91,0,0
2009-01-29,15.721,15.817,15.721,15.817,0,0
2009-01-30,15.626,15.626,15.438,15.531,0,0
2009-02-02,15.721,15.721,13.543,14.396,0,0
2009-02-03,14.396,14.396,13.732,13.732,0,0
2009-02-04,13.732,13.732,13.069,13.259,0,0
2009-02-05,12.311,13.448,11.648,13.165,0,0
2009-02-06,13.165,15.817,13.165,14.017,0,0
2009-02-09,13.259,14.111,13.259,14.111,0,0
2009-02-10,14.49,14.963,13.732,14.963,0,0
2009-02-11,15.342,15.817,14.868,14.963,0,0
2009-02-12,15.342,15.342,15.342,15.342,0,0
2009-02-13,15.342,15.531,15.342,15.438,0,0
2009-02-16,15.059,15.247,13.638,13.732,0,0
2009-02-17,13.259,13.259,12.406,12.406,0,0
2009-02-18,12.123,12.123,11.839,12.027,0,0
2009-02-19,12.311,12.311,12.311,12.311,0,0
2009-02-20,12.311,12.311,12.311,12.311,0,0
2009-02-23,11.744,12.311,11.744,12.311,0,0
2009-02-24,12.311,13.543,11.46,13.448,0,0
2009-02-25,13.069,14.584,13.069,13.732,0,0
2009-02-26,13.827,14.396,13.827,14.396,0,0
2009-02-27,13.732,14.205,13.732,14.205,0,0
2009-03-02,13.922,13.922,6.3453,6.3453,0,0
2009-03-03,6.0612,6.1558,5.9664,6.0612,0,0
2009-03-04,5.8717,6.2506,5.8717,6.2506,0,0
2009-03-05,6.2506,6.5346,6.1558,6.5346,0,0
2009-03-06,6.3453,6.5346,5.9664,6.5346,0,0
2009-03-09,6.1558,6.1558,6.1558,6.1558,0,0
2009-03-10,6.1558,6.1558,5.7771,5.7771,0,0
2009-03-11,5.7771,5.8717,5.7771,5.8717,0,0
2009-03-12,5.7771,5.8717,5.7771,5.8717,0,0
2009-03-13,5.7771,6.6294,5.7771,6.6294,0,0
2009-03-16,5.9664,6.44,5.9664,6.2506,0,0
2009-03-17,6.6294,6.6294,6.44,6.44,0,0
2009-03-18,6.6294,6.6294,6.5346,6.6294,0,0
2009-03-19,6.6294,6.8188,6.6294,6.724,0,0
2009-03-20,6.8188,6.8188,6.8188,6.8188,0,0
2009-03-23,6.9136,7.2923,6.8188,7.2923,0,0
2009-03-24,7.2923,7.387,7.2923,7.2923,0,0
2009-03-25,7.387,7.387,7.1976,7.1976,0,0
2009-03-26,7.5764,7.5764,7.5764,7.5764,0,0
2009-03-27,7.5764,7.5764,7.4818,7.4818,0,0
2009-03-30,7.4818,7.4818,7.4818,7.4818,0,0
2009-03-31,7.4818,7.4818,7.4818,7.4818,0,0
2009-04-01,7.4818,7.4818,7.1029,7.1029,0,0
2009-04-02,7.5764,7.5764,7.5764,7.5764,0,0
2009-04-03,7.4818,7.5764,7.4818,7.5764,0,0
2009-04-06,7.5764,7.6711,7.5764,7.5764,0,0
2009-04-07,7.6711,7.7659,7.6711,7.6711,0,0
2009-04-08,7.6711,7.7659,7.5764,7.7659,0,0
2009-04-09,7.8605,8.1447,7.8605,8.1447,0,0
2009-04-14,8.1447,8.1447,7.7659,7.7659,0,0
2009-04-15,7.6711,7.8605,7.6711,7.8605,0,0
2009-04-16,7.6711,8.1447,7.6711,8.1447,0,0
2009-04-17,7.9553,8.1447,7.9553,8.1447,0,0
2009-04-20,8.05,8.05,7.6711,7.6711,0,0
2009-04-21,7.6711,7.9553,7.6711,7.7659,0,0
2009-04-22,7.7659,8.4287,7.7659,8.4287,0,0
2009-04-23,8.5235,8.997,8.5235,8.9023,0,0
2009-04-24,8.997,9.1865,8.9023,9.1865,0,0
2009-04-27,9.2811,9.2811,8.4287,8.9023,0,0
2009-04-28,9.2811,12.123,9.2811,11.269,0,0
2009-04-29,12.596,12.596,11.269,11.744,0,0
2009-04-30,11.744,11.744,11.365,11.554,0,0
2009-05-04,11.744,11.744,11.365,11.554,0,0
2009-05-05,11.744,11.932,11.744,11.744,0,0
2009-05-06,11.744,11.744,11.648,11.744,0,0
2009-05-07,11.744,11.744,11.269,11.554,0,0
2009-05-08,11.269,11.46,11.269,11.46,0,0
2009-05-11,11.648,11.932,11.648,11.839,0,0
2009-05-12,11.839,12.123,11.744,11.744,0,0
2009-05-13,11.744,11.744,11.176,11.269,0,0
2009-05-14,11.176,11.269,11.176,11.176,0,0
2009-05-15,11.269,11.269,10.89,10.89,0,0
2009-05-18,11.176,11.554,10.702,10.702,0,0
2009-05-19,10.986,10.986,10.986,10.986,0,0
2009-05-20,11.176,11.176,11.176,11.176,0,0
2009-05-21,10.89,11.269,10.702,11.269,0,0
2009-05-22,11.269,11.269,11.081,11.269,0,0
2009-05-25,11.365,11.365,11.176,11.269,0,0
2009-05-26,11.081,11.365,11.081,11.365,0,0
2009-05-27,11.365,11.365,11.176,11.176,0,0
2009-05-28,11.176,11.176,11.176,11.176,0,0
2009-05-29,11.269,11.269,11.176,11.269,0,0
2009-06-01,11.269,11.744,11.269,11.648,0,0
2009-06-02,11.932,11.932,11.648,11.648,0,0
2009-06-03,11.648,11.932,11.648,11.648,0,0
2009-06-04,11.744,11.932,11.648,11.932,0,0
2009-06-05,12.027,12.027,11.932,12.027,0,0
2009-06-08,12.027,12.123,11.932,12.123,0,0
2009-06-09,12.123,12.975,12.123,12.975,0,0
2009-06-10,12.975,13.448,12.975,13.448,0,0
2009-06-12,12.69,13.732,12.69,13.732,0,0
2009-06-15,12.975,13.259,12.786,13.259,0,0
2009-06-16,13.259,13.259,12.786,13.259,0,0
2009-06-17,13.543,13.543,12.88,13.448,0,0
2009-06-18,13.448,13.448,12.88,12.88,0,0
2009-06-19,12.596,12.596,11.932,12.217,0,0
2009-06-22,12.502,12.502,12.502,12.502,0,0
2009-06-23,11.648,12.406,11.648,12.123,0,0
2009-06-24,12.027,12.027,11.648,11.932,0,0
2009-06-25,11.932,12.217,11.932,11.932,0,0
2009-06-26,12.217,12.217,12.027,12.123,0,0
2009-06-29,12.123,12.123,11.839,11.839,0,0
2009-06-30,11.839,13.827,11.744,13.448,0,0
2009-07-01,12.975,13.732,12.975,13.732,0,0
2009-07-02,13.732,13.732,13.543,13.638,0,0
2009-07-03,13.638,13.638,12.975,13.353,0,0
2009-07-06,12.975,13.448,12.88,13.448,0,0
2009-07-07,12.975,13.543,12.786,13.165,0,0
2009-07-08,12.975,12.975,12.69,12.786,0,0
2009-07-09,13.069,13.353,12.786,13.165,0,0
2009-07-10,13.165,13.165,12.88,12.975,0,0
2009-07-13,13.448,13.448,13.165,13.165,0,0
2009-07-14,13.069,13.069,13.069,13.069,0,0
2009-07-15,13.069,13.069,12.596,12.975,0,0
2009-07-16,12.502,13.353,12.502,13.353,0,0
2009-07-17,13.069,13.069,13.069,13.069,0,0
2009-07-20,13.353,13.353,13.069,13.353,0,0
2009-07-21,13.353,13.827,13.353,13.543,0,0
2009-07-22,13.732,13.827,13.732,13.827,0,0
2009-07-23,13.827,13.827,13.543,13.827,0,0
2009-07-24,13.827,13.827,13.827,13.827,0,0
2009-07-27,13.827,13.827,13.259,13.732,0,0
2009-07-28,13.732,13.732,13.353,13.732,0,0
2009-07-29,13.069,13.732,13.069,13.732,0,0
2009-07-30,13.732,13.732,13.165,13.732,0,0
2009-07-31,13.543,13.543,13.259,13.259,0,0
2009-08-03,13.353,13.353,12.975,12.975,0,0
2009-08-04,12.975,13.448,12.975,13.069,0,0
2009-08-05,13.069,13.165,13.069,13.165,0,0
2009-08-06,13.165,13.448,13.165,13.448,0,0
2009-08-07,13.259,13.448,13.259,13.448,0,0
2009-08-10,13.543,13.732,13.448,13.732,0,0
2009-08-11,13.448,14.49,13.448,14.396,0,0
2009-08-12,14.301,14.396,13.732,14.301,0,0
2009-08-13,14.301,14.301,13.922,14.017,0,0
2009-08-14,14.301,14.301,14.017,14.017,0,0
2009-08-17,14.017,14.396,13.732,14.396,0,0
2009-08-18,14.396,14.396,13.732,14.396,0,0
2009-08-19,14.301,14.396,14.301,14.396,0,0
2009-08-20,14.774,15.626,14.49,15.626,0,0
2009-08-21,16.194,16.289,16.194,16.289,0,0
2009-08-24,16.289,16.289,15.438,15.531,0,0
2009-08-25,15.817,17.047,15.817,17.047,0,0
2009-08-26,17.52,18.657,17.047,18.089,0,0
2009-08-27,18.089,18.089,17.047,17.047,0,0
2009-08-28,17.615,18.847,17.047,18.847,0,0
2009-08-31,18.847,18.847,17.71,18.373,0,0
2009-09-01,18.373,18.941,17.994,18.373,0,0
2009-09-02,17.994,18.373,16.952,17.237,0,0
2009-09-03,17.237,17.237,16.952,16.952,0,0
2009-09-04,17.047,17.047,16.952,16.952,0,0
2009-09-07,16.573,16.573,16.479,16.479,0,0
2009-09-08,16.573,17.331,16.573,17.331,0,0
2009-09-09,17.805,17.805,17.331,17.331,0,0
2009-09-10,18.373,18.373,16.479,16.573,0,0
2009-09-11,16.573,16.763,16.194,16.289,0,0
2009-09-14,16.952,16.952,16.194,16.194,0,0
2009-09-15,16.194,16.857,16.194,16.857,0,0
2009-09-16,17.047,17.142,16.857,16.857,0,0
2009-09-17,17.047,17.142,16.857,17.047,0,0
2009-09-18,16.479,16.668,16.479,16.668,0,0
2009-09-21,16.952,16.952,16.668,16.952,0,0
2009-09-22,16.857,16.952,16.857,16.952,0,0
2009-09-23,16.573,16.573,16.573,16.573,0,0
2009-09-24,16.479,16.857,16.289,16.857,0,0
2009-09-25,16.573,16.573,16.289,16.289,0,0
2009-09-28,15.91,16.289,15.721,15.817,0,0
2009-09-29,15.531,15.531,15.531,15.531,0,0
2009-09-30,15.531,15.721,15.531,15.721,0,0
2009-10-01,15.342,15.721,15.247,15.247,0,0
2009-10-02,15.247,15.247,15.247,15.247,0,0
2009-10-05,15.247,15.247,15.247,15.247,0,0
2009-10-06,15.342,16.1,15.342,16.1,0,0
2009-10-07,16.194,16.668,16.194,16.289,0,0
2009-10-08,16.479,16.479,16.289,16.289,0,0
2009-10-09,16.668,16.952,16.289,16.857,0,0
2009-10-12,16.857,16.857,16.857,16.857,0,0
2009-10-13,16.857,17.142,16.857,17.047,0,0
2009-10-14,17.047,17.047,16.857,16.952,0,0
2009-10-15,17.142,17.142,17.047,17.047,0,0
2009-10-16,17.047,17.047,16.952,17.047,0,0
2009-10-19,17.047,17.142,16.668,17.047,0,0
2009-10-20,16.668,16.668,16.194,16.573,0,0
2009-10-21,15.342,16.479,15.342,15.91,0,0
2009-10-22,15.91,16.194,15.91,16.194,0,0
2009-10-23,15.817,15.817,15.817,15.817,0,0
2009-10-26,16.194,16.194,15.438,15.438,0,0
2009-10-27,15.153,15.342,15.153,15.342,0,0
2009-10-28,15.059,15.438,15.059,15.342,0,0
2009-10-29,15.059,15.342,15.059,15.342,0,0
2009-10-30,15.342,16.194,15.342,16.1,0,0
2009-11-02,16.1,16.1,15.817,15.91,0,0
2009-11-03,15.91,15.91,15.817,15.817,0,0
2009-11-04,15.817,16.005,15.817,16.005,0,0
2009-11-05,16.1,16.1,15.626,15.626,0,0
2009-11-06,15.817,15.817,15.247,15.342,0,0
2009-11-09,15.531,15.531,15.342,15.342,0,0
2009-11-10,15.626,15.626,15.153,15.247,0,0
2009-11-12,15.342,15.438,15.153,15.153,0,0
2009-11-13,14.963,17.047,14.963,17.047,0,0
2009-11-16,17.237,17.237,16.857,17.047,0,0
2009-11-17,16.857,16.857,16.857,16.857,0,0
2009-11-18,17.52,17.52,17.047,17.047,0,0
2009-11-19,17.047,17.047,17.047,17.047,0,0
2009-11-20,17.047,17.047,16.857,16.857,0,0
2009-11-23,17.047,17.047,17.047,17.047,0,0
2009-11-24,16.857,17.047,16.763,17.047,0,0
2009-11-25,17.047,17.047,17.047,17.047,0,0
2009-11-26,17.047,17.047,16.479,16.573,0,0
2009-11-27,17.142,17.142,16.1,16.1,0,0
2009-11-30,16.289,17.047,16.289,17.047,0,0
2009-12-01,17.047,17.047,17.047,17.047,0,0
2009-12-02,17.047,17.047,16.005,16.384,0,0
2009-12-03,16.857,17.142,16.573,16.573,0,0
2009-12-04,16.384,16.573,16.384,16.573,0,0
2009-12-07,16.479,16.573,16.479,16.573,0,0
2009-12-08,16.573,16.668,16.194,16.194,0,0
2009-12-09,16.289,16.289,15.91,16.005,0,0
2009-12-10,16.005,16.1,15.91,15.91,0,0
2009-12-11,16.289,16.289,15.817,16.005,0,0
2009-12-14,15.817,16.005,15.817,16.005,0,0
2009-12-15,15.91,15.91,15.342,15.626,0,0
2009-12-16,15.817,15.817,15.342,15.342,0,0
2009-12-17,15.817,15.817,14.68,15.153,0,0
2009-12-18,15.153,16.289,15.153,16.005,0,0
2009-12-21,16.479,16.857,16.005,16.763,0,0
2009-12-22,16.952,17.047,16.763,16.857,0,0
2009-12-23,17.047,17.047,16.289,16.289,0,0
2009-12-28,16.194,16.289,16.005,16.1,0,0
2009-12-29,16.668,17.047,16.1,16.952,0,0
2009-12-30,17.047,17.52,16.857,17.047,0,0
2009-12-31,17.237,17.237,16.479,16.573,0,0
2010-01-04,17.047,17.331,16.573,17.331,0,0
2010-01-05,17.52,17.52,17.426,17.426,0,0
2010-01-06,17.426,17.426,17.331,17.426,0,0
2010-01-07,17.331,17.331,17.142,17.331,0,0
2010-01-08,17.426,17.615,17.426,17.426,0,0
2010-01-11,17.71,17.71,17.331,17.52,0,0
2010-01-12,17.71,17.71,16.763,17.52,0,0
2010-01-13,17.52,17.52,17.331,17.331,0,0
2010-01-14,17.331,17.331,17.047,17.047,0,0
2010-01-15,17.047,17.615,17.047,17.615,0,0
2010-01-18,17.426,17.805,17.426,17.52,0,0
2010-01-19,17.71,17.805,17.426,17.805,0,0
2010-01-20,17.805,17.805,17.52,17.805,0,0
2010-01-21,17.899,17.899,17.331,17.52,0,0
2010-01-22,17.52,17.52,17.047,17.047,0,0
2010-01-25,17.142,17.615,17.142,17.142,0,0
2010-01-26,17.142,17.142,17.142,17.142,0,0
2010-01-27,17.52,17.52,17.142,17.142,0,0
2010-01-28,17.237,17.615,17.047,17.615,0,0
2010-01-29,17.615,17.615,17.52,17.52,0,0
2010-02-01,16.763,17.615,16.763,17.615,0,0
2010-02-02,17.52,17.52,17.52,17.52,0,0
2010-02-03,17.52,17.615,17.52,17.615,0,0
2010-02-04,17.615,17.615,17.047,17.047,0,0
2010-02-05,17.047,17.52,17.047,17.426,0,0
2010-02-08,17.426,17.426,16.952,17.331,0,0
2010-02-09,17.52,17.52,17.52,17.52,0,0
2010-02-10,17.52,17.71,17.047,17.71,0,0
2010-02-11,17.71,17.71,17.52,17.52,0,0
2010-02-12,17.52,17.615,17.52,17.615,0,0
2010-02-15,17.615,17.805,17.047,17.805,0,0
2010-02-16,17.899,17.994,17.899,17.994,0,0
2010-02-17,17.994,18.657,17.805,18.657,0,0
2010-02-18,19.036,19.414,19.036,19.036,0,0
2010-02-19,19.036,19.036,19.036,19.036,0,0
2010-02-22,19.32,19.32,18.752,18.941,0,0
2010-02-23,18.941,18.941,18.752,18.847,0,0
2010-02-24,19.131,19.699,18.562,19.225,0,0
2010-02-25,19.699,19.699,19.131,19.699,0,0
2010-02-26,18.657,19.699,15.438,15.438,0,0
2010-03-01,15.342,15.342,15.153,15.342,0,0
2010-03-02,14.49,15.438,14.49,15.342,0,0
2010-03-03,15.531,15.531,14.963,15.059,0,0
2010-03-04,14.868,15.626,14.868,15.531,0,0
2010-03-05,15.817,15.817,15.531,15.531,0,0
2010-03-08,15.531,16.005,14.963,16.005,0,0
2010-03-09,15.626,16.384,15.626,16.384,0,0
2010-03-10,16.384,16.384,16.194,16.289,0,0
2010-03-11,16.289,16.573,16.289,16.479,0,0
2010-03-12,16.479,16.479,16.384,16.479,0,0
2010-03-15,16.479,16.479,16.384,16.384,0,0
2010-03-16,16.668,16.668,16.573,16.573,0,0
2010-03-17,16.668,16.857,16.668,16.668,0,0
2010-03-18,17.047,17.047,16.573,16.668,0,0
2010-03-19,16.194,16.384,16.194,16.289,0,0
2010-03-22,16.289,16.289,15.626,15.626,0,0
2010-03-23,15.626,15.626,14.774,14.868,0,0
2010-03-24,14.868,14.868,14.396,14.584,0,0
2010-03-25,14.774,14.774,14.774,14.774,0,0
2010-03-26,14.868,15.247,14.868,14.963,0,0
2010-03-29,14.868,16.384,14.868,15.626,0,0
2010-03-30,16.194,16.479,15.817,16.289,0,0
2010-03-31,16.289,16.479,16.289,16.289,0,0
2010-04-01,16.289,16.573,16.1,16.573,0,0
2010-04-06,16.005,16.479,16.005,16.384,0,0
2010-04-07,15.91,16.479,15.91,16.384,0,0
2010-04-08,16.479,16.479,16.194,16.384,0,0
2010-04-09,16.384,16.384,16.384,16.384,0,0
2010-04-12,16.384,16.384,15.91,15.91,0,0
2010-04-13,15.531,15.721,15.247,15.721,0,0
2010-04-14,15.342,16.1,15.342,16.1,0,0
2010-04-15,16.384,16.384,15.626,15.626,0,0
2010-04-16,15.342,15.342,15.342,15.342,0,0
2010-04-19,15.059,15.059,14.68,14.68,0,0
2010-04-20,14.68,15.153,14.68,15.059,0,0
2010-04-21,14.774,15.153,14.584,14.68,0,0
2010-04-22,14.584,14.774,14.584,14.774,0,0
2010-04-23,14.774,15.531,14.774,15.531,0,0
2010-04-26,15.531,15.531,15.059,15.342,0,0
2010-04-27,15.153,15.153,14.68,14.963,0,0
2010-04-28,14.49,14.49,14.396,14.396,0,0
2010-04-29,15.438,15.438,14.017,14.301,0,0
2010-04-30,14.301,14.396,14.017,14.017,0,0
2010-05-04,14.017,14.017,13.732,13.732,0,0
2010-05-05,13.827,14.301,13.827,14.017,0,0
2010-05-06,14.017,14.396,14.017,14.396,0,0
2010-05-07,14.017,14.017,13.922,13.922,0,0
2010-05-10,14.396,14.584,14.017,14.017,0,0
2010-05-11,14.017,14.205,14.017,14.205,0,0
2010-05-12,14.205,14.205,14.017,14.017,0,0
2010-05-13,14.49,14.49,13.543,13.543,0,0
2010-05-14,13.543,13.543,12.975,13.165,0,0
2010-05-17,13.259,13.259,12.975,12.975,0,0
2010-05-18,13.353,13.448,12.975,13.448,0,0
2010-05-19,13.069,13.448,13.069,13.353,0,0
2010-05-20,13.448,13.448,12.88,12.88,0,0
2010-05-21,12.69,12.69,12.123,12.69,0,0
2010-05-24,12.406,12.406,12.123,12.123,0,0
2010-05-25,12.123,12.217,11.744,11.744,0,0
2010-05-26,12.502,12.502,12.027,12.027,0,0
2010-05-27,12.217,12.217,11.648,11.648,0,0
2010-05-28,12.027,12.502,12.027,12.311,0,0
2010-05-31,12.311,12.311,12.311,12.311,0,0
2010-06-01,12.596,12.88,12.311,12.311,0,0
2010-06-02,12.596,12.596,12.311,12.311,0,0
2010-06-04,12.311,12.786,12.311,12.786,0,0
2010-06-07,12.88,13.069,12.88,12.88,0,0
2010-06-08,12.88,12.88,12.88,12.88,0,0
2010-06-09,13.165,13.165,12.69,12.69,0,0
2010-06-10,12.502,12.786,12.311,12.786,0,0
2010-06-11,12.786,12.786,12.786,12.786,0,0
2010-06-14,12.502,12.502,12.311,12.311,0,0
2010-06-15,12.311,12.406,12.311,12.406,0,0
2010-06-16,12.69,13.069,12.311,12.311,0,0
2010-06-17,12.311,12.406,12.311,12.406,0,0
2010-06-18,12.406,12.406,12.311,12.311,0,0
2010-06-21,12.311,12.311,12.311,12.311,0,0
2010-06-22,12.311,12.311,12.311,12.311,0,0
2010-06-23,12.69,12.69,12.311,12.311,0,0
2010-06-24,12.311,12.311,12.311,12.311,0,0
2010-06-25,12.596,12.786,12.311,12.786,0,0
2010-06-28,12.502,12.502,12.311,12.311,0,0
2010-06-29,12.311,12.311,12.311,12.311,0,0
2010-06-30,12.311,12.311,12.311,12.311,0,0
2010-07-02,12.311,12.596,12.311,12.596,0,0
2010-07-05,12.596,12.596,12.596,12.596,0,0
2010-07-06,12.596,13.259,12.596,12.786,0,0
2010-07-07,12.786,13.165,12.786,13.165,0,0
2010-07-08,13.165,13.165,12.975,13.069,0,0
2010-07-09,13.543,14.396,13.543,13.922,0,0
2010-07-12,14.49,14.49,14.205,14.49,0,0
2010-07-13,14.49,14.68,14.49,14.68,0,0
2010-07-14,14.774,14.774,14.584,14.774,0,0
2010-07-15,14.774,14.868,14.774,14.868,0,0
2010-07-16,14.868,14.868,14.868,14.868,0,0
2010-07-19,14.868,14.963,14.774,14.963,0,0
2010-07-20,14.963,14.963,14.68,14.68,0,0
2010-07-21,14.584,14.584,14.49,14.584,0,0
2010-07-22,14.584,14.584,14.017,14.49,0,0
2010-07-23,14.49,14.584,14.49,14.584,0,0
2010-07-26,14.963,14.963,14.68,14.68,0,0
2010-07-27,14.868,14.868,14.868,14.868,0,0
2010-07-28,14.963,14.963,14.868,14.963,0,0
2010-07-29,14.963,15.059,14.963,15.059,0,0
2010-07-30,14.868,15.153,14.868,15.059,0,0
2010-08-02,14.868,15.059,14.774,15.059,0,0
2010-08-03,15.153,15.153,15.153,15.153,0,0
2010-08-04,15.153,15.247,15.153,15.247,0,0
2010-08-05,15.247,15.247,15.059,15.247,0,0
2010-08-06,15.247,15.247,15.059,15.153,0,0
2010-08-09,15.153,15.153,14.868,14.963,0,0
2010-08-10,15.153,15.153,14.963,15.059,0,0
2010-08-11,14.963,14.963,14.868,14.963,0,0
2010-08-12,14.963,14.963,14.868,14.868,0,0
2010-08-13,14.963,14.963,14.49,14.584,0,0
2010-08-16,14.584,14.584,14.396,14.49,0,0
2010-08-17,14.396,14.49,14.111,14.49,0,0
2010-08-18,14.49,14.49,14.49,14.49,0,0
2010-08-19,14.868,14.868,14.868,14.868,0,0
2010-08-20,15.153,15.153,14.68,14.68,0,0
2010-08-23,14.49,14.49,14.301,14.301,0,0
2010-08-24,14.301,14.301,13.732,13.732,0,0
2010-08-25,13.638,13.732,13.638,13.732,0,0
2010-08-26,13.638,13.922,13.638,13.827,0,0
2010-08-27,13.827,14.396,13.827,14.396,0,0
2010-08-30,14.49,14.49,14.111,14.49,0,0
2010-08-31,14.301,14.868,13.922,14.774,0,0
2010-09-01,14.68,14.68,14.017,14.68,0,0
2010-09-02,14.68,14.68,14.301,14.68,0,0
2010-09-03,14.774,14.774,13.259,13.259,0,0
2010-09-06,13.448,13.448,13.353,13.353,0,0
2010-09-07,13.353,13.353,12.975,12.975,0,0
2010-09-08,12.88,13.259,12.88,13.259,0,0
2010-09-09,12.88,13.165,12.786,13.069,0,0
2010-09-10,13.069,13.069,12.69,12.786,0,0
2010-09-13,12.786,12.786,12.69,12.69,0,0
2010-09-14,12.69,12.69,12.406,12.406,0,0
2010-09-15,12.217,12.406,12.217,12.217,0,0
2010-09-16,12.217,12.69,12.217,12.69,0,0
2010-09-17,12.786,12.786,12.69,12.786,0,0
2010-09-20,12.786,12.975,12.406,12.975,0,0
2010-09-21,12.975,13.165,12.786,13.069,0,0
2010-09-22,13.165,13.165,12.406,13.069,0,0
2010-09-23,12.975,12.975,12.406,12.88,0,0
2010-09-24,13.069,13.069,12.406,12.975,0,0
2010-09-27,12.975,12.975,12.406,12.786,0,0
2010-09-28,12.975,12.975,12.406,12.786,0,0
2010-09-29,12.786,12.786,12.406,12.69,0,0
2010-09-30,12.406,12.975,12.406,12.975,0,0
2010-10-01,13.165,13.165,12.406,12.88,0,0
2010-10-04,12.975,12.975,12.406,12.596,0,0
2010-10-05,12.596,12.69,12.406,12.69,0,0
2010-10-06,12.69,13.259,12.406,12.975,0,0
2010-10-07,13.165,13.165,13.069,13.069,0,0
2010-10-08,12.975,13.165,12.975,13.165,0,0
2010-10-11,13.259,13.259,12.88,13.165,0,0
2010-10-12,13.165,13.165,12.406,12.69,0,0
2010-10-13,12.502,12.786,12.502,12.69,0,0
2010-10-14,12.786,12.786,12.406,12.69,0,0
2010-10-15,12.69,12.69,12.69,12.69,0,0
2010-10-18,12.69,12.69,12.406,12.69,0,0
2010-10-19,12.69,12.69,12.502,12.69,0,0
2010-10-20,12.69,12.69,12.406,12.406,0,0
2010-10-21,12.406,12.596,12.311,12.596,0,0
2010-10-22,12.596,12.596,12.406,12.596,0,0
2010-10-25,12.596,12.596,12.217,12.217,0,0
2010-10-26,12.406,12.406,12.217,12.406,0,0
2010-10-27,12.406,12.406,12.311,12.406,0,0
2010-10-28,12.502,12.502,12.311,12.502,0,0
2010-10-29,12.502,12.502,12.217,12.502,0,0
2010-11-02,12.502,12.69,12.502,12.596,0,0
2010-11-03,12.786,13.165,12.786,13.165,0,0
2010-11-04,13.259,13.448,13.165,13.448,0,0
2010-11-05,13.448,13.448,13.165,13.353,0,0
2010-11-08,13.353,13.448,12.88,12.88,0,0
2010-11-09,13.259,13.922,13.259,13.638,0,0
2010-11-10,14.584,14.584,14.301,14.396,0,0
2010-11-12,14.301,14.396,12.123,12.123,0,0
2010-11-15,12.123,12.123,12.123,12.123,0,0
2010-11-16,12.123,12.123,11.932,12.027,0,0
2010-11-17,11.932,11.932,11.932,11.932,0,0
2010-11-18,11.932,12.027,11.744,11.932,0,0
2010-11-19,11.932,11.932,11.839,11.839,0,0
2010-11-22,11.839,11.932,11.744,11.839,0,0
2010-11-23,11.839,11.839,11.365,11.648,0,0
2010-11-24,11.932,12.123,11.932,11.932,0,0
2010-11-25,12.217,12.217,11.932,11.932,0,0
2010-11-26,12.027,12.027,11.932,12.027,0,0
2010-11-29,12.123,12.311,11.932,11.932,0,0
2010-11-30,11.932,11.932,11.648,11.932,0,0
2010-12-01,11.932,11.932,11.365,11.744,0,0
2010-12-02,11.932,11.932,11.744,11.839,0,0
2010-12-03,11.839,11.932,11.839,11.932,0,0
2010-12-06,11.932,12.027,11.839,11.839,0,0
2010-12-07,12.027,12.027,11.839,11.839,0,0
2010-12-08,11.932,11.932,11.744,11.744,0,0
2010-12-09,11.839,11.839,11.744,11.744,0,0
2010-12-10,11.744,11.744,11.46,11.554,0,0
2010-12-13,11.554,11.554,11.554,11.554,0,0
2010-12-14,11.648,11.932,11.554,11.932,0,0
2010-12-15,12.027,12.027,11.744,11.744,0,0
2010-12-16,11.744,11.932,11.744,11.839,0,0
2010-12-17,11.839,11.839,11.648,11.648,0,0
2010-12-20,11.648,11.744,11.554,11.744,0,0
2010-12-21,11.744,11.744,11.648,11.744,0,0
2010-12-22,11.839,11.839,11.648,11.744,0,0
2010-12-23,11.744,11.744,11.554,11.648,0,0
2010-12-27,11.839,11.839,11.554,11.648,0,0
2010-12-28,11.554,11.744,11.554,11.744,0,0
2010-12-29,11.744,11.744,11.648,11.744,0,0
2010-12-30,11.744,12.027,11.744,12.027,0,0
2010-12-31,12.027,12.217,12.027,12.217,0,0
2011-01-03,12.217,12.217,11.744,12.123,0,0
2011-01-04,12.123,12.123,11.932,12.027,0,0
2011-01-05,12.027,12.123,11.839,12.123,0,0
2011-01-07,12.027,12.123,12.027,12.123,0,0
2011-01-10,12.311,12.311,12.027,12.027,0,0
2011-01-11,12.027,12.027,11.932,11.932,0,0
2011-01-12,11.839,11.932,11.839,11.932,0,0
2011-01-13,11.932,12.027,11.839,11.839,0,0
2011-01-14,11.839,11.932,11.46,11.46,0,0
2011-01-17,11.46,11.554,11.46,11.554,0,0
2011-01-18,11.744,11.744,11.46,11.46,0,0
2011-01-19,11.554,11.554,10.89,11.269,0,0
2011-01-20,11.269,11.365,11.269,11.365,0,0
2011-01-21,11.269,11.554,11.269,11.46,0,0
2011-01-24,11.46,11.46,11.269,11.365,0,0
2011-01-25,11.365,11.46,11.269,11.269,0,0
2011-01-26,11.269,11.269,11.269,11.269,0,0
2011-01-27,11.176,11.46,11.176,11.365,0,0
2011-01-28,11.365,11.365,11.365,11.365,0,0
2011-01-31,10.797,11.365,10.797,11.269,0,0
2011-02-01,11.365,11.365,11.081,11.269,0,0
2011-02-02,11.269,11.46,11.176,11.269,0,0
2011-02-03,11.176,11.46,11.176,11.269,0,0
2011-02-04,11.269,11.269,11.269,11.269,0,0
2011-02-07,11.365,11.932,11.269,11.932,0,0
2011-02-08,11.932,11.932,11.839,11.839,0,0
2011-02-09,11.839,11.839,11.365,11.648,0,0
2011-02-10,11.648,11.839,11.46,11.839,0,0
2011-02-11,11.554,11.839,11.365,11.839,0,0
2011-02-14,11.932,11.932,11.46,11.744,0,0
2011-02-15,11.839,11.839,11.554,11.554,0,0
2011-02-16,11.554,11.554,11.46,11.46,0,0
2011-02-17,11.365,11.46,11.365,11.46,0,0
2011-02-18,11.365,11.46,11.365,11.46,0,0
2011-02-21,11.365,11.46,11.365,11.365,0,0
2011-02-22,11.365,11.365,11.365,11.365,0,0
2011-02-23,11.365,11.648,11.365,11.554,0,0
2011-02-24,11.648,11.839,11.648,11.744,0,0
2011-02-25,11.744,11.744,11.648,11.648,0,0
2011-02-28,11.648,11.744,11.554,11.744,0,0
2011-03-01,11.744,11.744,11.554,11.554,0,0
2011-03-02,11.648,11.839,11.554,11.839,0,0
2011-03-03,11.839,11.932,11.554,11.932,0,0
2011-03-04,11.932,12.123,11.932,12.123,0,0
2011-03-07,12.123,12.311,12.123,12.123,0,0
2011-03-08,12.217,12.311,12.123,12.217,0,0
2011-03-09,12.217,12.311,12.123,12.217,0,0
2011-03-10,12.217,12.217,12.027,12.027,0,0
2011-03-11,12.027,12.027,11.744,11.744,0,0
2011-03-14,11.744,11.932,11.744,11.932,0,0
2011-03-15,11.648,12.123,11.648,12.123,0,0
2011-03-16,12.217,12.217,12.123,12.123,0,0
2011-03-17,12.217,12.217,12.123,12.123,0,0
2011-03-18,12.217,12.217,12.027,12.027,0,0
2011-03-21,11.932,12.027,11.932,12.027,0,0
2011-03-22,12.123,12.311,12.027,12.311,0,0
2011-03-23,12.311,12.311,10.89,10.89,0,0
2011-03-24,10.89,10.89,10.702,10.702,0,0
2011-03-25,10.702,10.797,10.511,10.702,0,0
2011-03-28,10.702,10.702,10.702,10.702,0,0
2011-03-29,10.702,10.797,10.511,10.797,0,0
2011-03-30,10.797,10.797,10.702,10.702,0,0
2011-03-31,10.702,10.702,10.511,10.702,0,0
2011-04-01,10.797,10.797,10.607,10.702,0,0
2011-04-04,10.702,10.702,10.228,10.511,0,0
2011-04-05,10.228,10.511,10.228,10.323,0,0
2011-04-06,10.228,10.418,10.134,10.323,0,0
2011-04-07,10.418,10.418,10.323,10.418,0,0
2011-04-08,10.323,10.511,10.323,10.418,0,0
2011-04-11,10.323,10.418,10.228,10.228,0,0
2011-04-12,10.228,10.228,10.039,10.228,0,0
2011-04-13,10.228,10.418,10.134,10.134,0,0
2011-04-14,10.228,10.228,10.039,10.134,0,0
2011-04-15,10.228,10.228,10.039,10.039,0,0
2011-04-18,10.039,10.134,9.755,10.134,0,0
2011-04-19,10.134,10.228,10.134,10.228,0,0
2011-04-20,10.228,10.228,10.134,10.134,0,0
2011-04-21,10.228,10.228,9.944,9.944,0,0
2011-04-26,9.944,9.944,9.755,9.849,0,0
2011-04-27,9.944,9.944,9.849,9.849,0,0
2011-04-28,9.849,9.849,9.66,9.66,0,0
2011-04-29,9.755,9.755,9.3757,9.66,0,0
2011-05-02,9.849,9.849,9.66,9.66,0,0
2011-05-04,9.755,9.755,9.565,9.565,0,0
2011-05-05,9.565,9.66,9.4714,9.565,0,0
2011-05-06,9.565,9.565,9.3757,9.3757,0,0
2011-05-09,9.3757,9.3757,9.2811,9.3757,0,0
2011-05-10,9.3757,9.3757,9.0917,9.2811,0,0
2011-05-11,9.1865,9.2811,9.1865,9.2811,0,0
2011-05-12,9.2811,9.3757,9.2811,9.2811,0,0
2011-05-13,9.3757,9.3757,8.6183,8.7129,0,0
2011-05-16,8.2393,8.7129,8.1447,8.2393,0,0
2011-05-17,8.2393,8.3341,8.05,8.1447,0,0
2011-05-18,8.3341,8.3341,8.05,8.1447,0,0
2011-05-19,8.2393,8.2393,7.8605,7.8605,0,0
2011-05-20,7.7659,7.9553,7.7659,7.9553,0,0
2011-05-23,7.9553,8.05,7.9553,7.9553,0,0
2011-05-24,7.9553,7.9553,7.9553,7.9553,0,0
2011-05-25,7.9553,7.9553,7.9553,7.9553,0,0
2011-05-26,7.9553,7.9553,7.8605,7.9553,0,0
2011-05-27,7.9553,8.05,7.9553,7.9553,0,0
2011-05-30,7.9553,8.1447,7.9553,7.9553,0,0
2011-05-31,7.9553,7.9553,7.9553,7.9553,0,0
2011-06-01,8.05,8.05,7.9553,7.9553,0,0
2011-06-02,7.9553,8.05,7.9553,8.05,0,0
2011-06-03,8.05,8.05,8.05,8.05,0,0
2011-06-06,8.05,8.2393,8.05,8.2393,0,0
2011-06-07,8.2393,8.2393,8.05,8.2393,0,0
2011-06-08,8.2393,8.4287,8.2393,8.3341,0,0
2011-06-09,8.3341,8.4287,8.3341,8.4287,0,0
2011-06-10,8.4287,8.4287,8.2393,8.4287,0,0
2011-06-13,8.4287,8.4287,8.3341,8.4287,0,0
2011-06-14,8.4287,8.4287,8.3341,8.4287,0,0
2011-06-15,8.4287,8.4287,8.2393,8.2393,0,0
2011-06-16,8.2393,8.2393,8.05,8.1447,0,0
2011-06-17,8.2393,8.2393,8.05,8.05,0,0
2011-06-20,8.05,8.05,7.8605,7.8605,0,0
2011-06-21,7.8605,7.8605,7.1976,7.6711,0,0
2011-06-22,7.6711,7.6711,7.2923,7.387,0,0
2011-06-24,7.2923,7.2923,6.724,6.8188,0,0
2011-06-27,6.8188,6.8188,6.3453,6.3453,0,0
2011-06-28,6.5346,6.6294,6.3453,6.3453,0,0
2011-06-29,6.3453,6.44,6.3453,6.3453,0,0
2011-06-30,6.44,6.724,6.44,6.5346,0,0
2011-07-01,6.6294,6.8188,6.44,6.44,0,0
2011-07-04,6.5346,6.5346,6.2506,6.2506,0,0
2011-07-05,6.3453,6.3453,6.0612,6.1558,0,0
2011-07-06,6.1558,6.1558,6.0612,6.1558,0,0
2011-07-07,6.1558,6.1558,6.0612,6.0612,0,0
2011-07-08,6.0612,6.0612,5.9664,6.0612,0,0
2011-07-11,6.0612,6.0612,5.9664,5.9664,0,0
2011-07-12,5.9664,5.9664,5.8717,5.8717,0,0
2011-07-13,5.9664,6.0612,5.8717,5.8717,0,0
2011-07-14,5.6823,5.8717,5.6823,5.7771,0,0
2011-07-15,5.6823,5.6823,5.5876,5.5876,0,0
2011-07-18,5.4929,5.4929,5.3035,5.3982,0,0
2011-07-19,5.3982,5.3982,5.1141,5.2089,0,0
2011-07-20,5.0194,5.2089,4.9247,5.2089,0,0
2011-07-21,5.2089,5.2089,5.0194,5.2089,0,0
2011-07-22,5.2089,5.2089,5.1141,5.2089,0,0
2011-07-25,5.2089,5.3035,5.2089,5.2089,0,0
2011-07-26,5.2089,5.2089,5.1141,5.2089,0,0
2011-07-27,5.2089,5.2089,5.1141,5.1141,0,0
2011-07-28,5.1141,5.2089,5.0194,5.2089,0,0
2011-07-29,5.2089,5.2089,5.0194,5.2089,0,0
2011-08-01,5.2089,5.6823,5.2089,5.3982,0,0
2011-08-02,5.3982,5.5876,5.3982,5.3982,0,0
2011-08-03,5.3035,5.3982,5.2089,5.2089,0,0
2011-08-04,5.2089,5.2089,4.7353,4.7353,0,0
2011-08-05,4.5459,4.7353,4.4512,4.5459,0,0
2011-08-08,4.167,4.3565,4.167,4.167,0,0
2011-08-09,4.167,4.2617,3.9776,4.167,0,0
2011-08-10,4.2617,4.4512,4.2617,4.3565,0,0
2011-08-11,4.2617,4.6406,4.2617,4.4512,0,0
2011-08-12,4.6406,4.7353,4.4512,4.7353,0,0
2011-08-16,5.2089,5.2089,5.0194,5.1141,0,0
2011-08-17,5.1141,5.1141,5.1141,5.1141,0,0
2011-08-18,5.1141,5.1141,4.5459,4.5459,0,0
2011-08-19,4.5459,4.5459,4.2617,4.5459,0,0
2011-08-22,4.6406,4.7353,4.6406,4.6406,0,0
2011-08-23,4.7353,4.7353,4.5459,4.6406,0,0
2011-08-24,4.7353,4.7353,4.5459,4.6406,0,0
2011-08-25,4.6406,4.6406,4.5459,4.6406,0,0
2011-08-26,4.6406,4.6406,4.6406,4.6406,0,0
2011-08-29,4.7353,4.7353,4.6406,4.6406,0,0
2011-08-30,4.7353,4.7353,4.6406,4.6406,0,0
2011-08-31,4.7353,4.7353,4.5459,4.6406,0,0
2011-09-01,4.5459,5.2089,4.5459,5.2089,0,0
2011-09-02,5.2089,5.2089,4.9247,5.0194,0,0
2011-09-05,4.7353,5.0194,4.6406,4.6406,0,0
2011-09-06,4.5459,4.5459,4.4512,4.5459,0,0
2011-09-07,4.4512,4.6406,4.4512,4.6406,0,0
2011-09-08,4.6406,4.8299,4.6406,4.6406,0,0
2011-09-09,4.6406,4.8299,4.6406,4.8299,0,0
2011-09-12,4.7353,4.7353,4.5459,4.5459,0,0
2011-09-13,4.5459,4.5459,4.4512,4.4512,0,0
2011-09-14,4.4512,4.4512,4.3565,4.4512,0,0
2011-09-15,4.4512,4.4512,4.2617,4.3565,0,0
2011-09-16,4.3565,4.3565,4.0724,4.167,0,0
2011-09-19,4.167,4.167,4.0724,4.0724,0,0
2011-09-20,4.0724,4.0724,4.0724,4.0724,0,0
2011-09-21,4.0724,4.0724,3.9776,4.0724,0,0
2011-09-22,3.9776,4.0724,3.883,3.883,0,0
2011-09-23,3.7882,3.883,3.7882,3.883,0,0
2011-09-26,3.7882,3.7882,3.5042,3.7882,0,0
2011-09-27,3.7882,3.7882,3.5988,3.6935,0,0
2011-09-28,3.6935,3.6935,3.6935,3.6935,0,0
2011-09-29,3.6935,3.6935,3.5988,3.5988,0,0
2011-09-30,3.5988,3.5988,3.5042,3.5988,0,0
2011-10-03,3.5988,3.5988,3.4094,3.4094,0,0
2011-10-04,3.4094,3.4094,3.3147,3.4094,0,0
2011-10-05,3.4094,3.5042,3.4094,3.4094,0,0
2011-10-06,3.4094,3.5042,3.3147,3.5042,0,0
2011-10-07,3.5988,3.5988,3.5042,3.5042,0,0
2011-10-10,3.5042,3.5042,3.5042,3.5042,0,0
2011-10-11,3.5042,3.5042,3.4094,3.5042,0,0
2011-10-12,3.5988,3.5988,3.5042,3.5042,0,0
2011-10-13,3.5042,3.5988,3.5042,3.5042,0,0
2011-10-14,3.5988,3.883,3.5988,3.883,0,0
2011-10-17,3.9776,4.7353,3.9776,4.167,0,0
2011-10-18,4.167,4.167,3.883,3.883,0,0
2011-10-19,3.883,3.9776,3.7882,3.7882,0,0
2011-10-20,3.7882,3.7882,3.5988,3.7882,0,0
2011-10-21,3.7882,3.9776,3.6935,3.9776,0,0
2011-10-24,3.9776,4.0724,3.9776,4.0724,0,0
2011-10-25,4.0724,4.0724,3.883,3.883,0,0
2011-10-26,3.883,3.883,3.7882,3.883,0,0
2011-10-27,3.883,4.2617,3.883,4.167,0,0
2011-10-28,4.3565,4.3565,4.167,4.167,0,0
2011-10-31,4.2617,4.2617,4.0724,4.0724,0,0
2011-11-02,3.9776,3.9776,3.7882,3.883,0,0
2011-11-03,3.883,4.167,3.883,4.167,0,0
2011-11-04,4.2617,4.2617,4.0724,4.167,0,0
2011-11-07,4.167,4.2617,4.167,4.167,0,0
2011-11-08,4.167,4.167,4.0724,4.167,0,0
2011-11-09,4.167,4.167,3.9776,3.9776,0,0
2011-11-10,3.883,3.883,3.883,3.883,0,0
2011-11-14,3.9776,3.9776,3.883,3.9776,0,0
2011-11-15,3.7882,3.7882,3.6935,3.6935,0,0
2011-11-16,3.6935,6.724,3.5988,6.724,0,0
2011-11-17,6.724,6.724,6.5346,6.724,0,0
2011-11-18,6.8188,6.8188,6.3453,6.3453,0,0
2011-11-21,6.3453,6.3453,6.0612,6.0612,0,0
2011-11-22,6.0612,6.1558,5.5876,5.5876,0,0
2011-11-23,5.4929,5.7771,5.0194,5.4929,0,0
2011-11-24,5.4929,5.4929,5.4929,5.4929,0,0
2011-11-25,5.4929,5.4929,5.3982,5.3982,0,0
2011-11-28,5.3982,5.3982,4.9247,5.2089,0,0
2011-11-29,5.1141,5.3982,5.1141,5.3982,0,0
2011-11-30,5.3982,5.5876,5.2089,5.5876,0,0
2011-12-01,5.5876,5.6823,5.2089,5.3982,0,0
2011-12-02,5.3982,5.3982,5.2089,5.3982,0,0
2011-12-05,5.3982,5.3982,5.2089,5.2089,0,0
2011-12-06,5.2089,5.3035,5.2089,5.3035,0,0
2011-12-07,5.3035,5.3035,5.0194,5.2089,0,0
2011-12-08,5.2089,5.2089,5.0194,5.0194,0,0
2011-12-09,5.0194,5.1141,4.7353,5.1141,0,0
2011-12-12,5.0194,5.2089,5.0194,5.2089,0,0
2011-12-13,5.2089,5.3982,5.2089,5.3035,0,0
2011-12-14,5.3035,5.3982,5.2089,5.3035,0,0
2011-12-15,5.3982,5.3982,5.2089,5.3035,0,0
2011-12-16,5.3982,5.3982,5.2089,5.3035,0,0
2011-12-19,5.3982,5.3982,5.3035,5.3035,0,0
2011-12-20,5.3982,5.3982,5.3035,5.3982,0,0
2011-12-21,5.4929,5.4929,5.4929,5.4929,0,0
2011-12-22,5.4929,5.5876,5.4929,5.4929,0,0
2011-12-23,5.5876,5.5876,5.4929,5.4929,0,0
2011-12-27,5.4929,5.4929,5.3982,5.4929,0,0
2011-12-28,5.4929,5.4929,5.4929,5.4929,0,0
2011-12-29,5.4929,5.4929,5.3982,5.4929,0,0
2011-12-30,5.4929,5.4929,5.4929,5.4929,0,0
2012-01-02,5.4929,5.4929,5.3982,5.3982,0,0
2012-01-03,5.3982,5.3982,5.3035,5.3982,0,0
2012-01-04,5.3982,5.3982,5.2089,5.3035,0,0
2012-01-05,5.3035,5.3982,5.2089,5.3035,0,0
2012-01-09,5.3982,5.3982,5.3982,5.3982,0,0
2012-01-10,5.3982,5.5876,5.3982,5.5876,0,0
2012-01-11,5.5876,5.9664,5.5876,5.9664,0,0
2012-01-12,5.9664,6.44,5.9664,6.3453,0,0
2012-01-13,6.3453,6.5346,6.1558,6.1558,0,0
2012-01-16,6.1558,6.2506,6.1558,6.2506,0,0
2012-01-17,6.2506,6.8188,6.2506,6.8188,0,0
2012-01-18,7.1976,7.2923,7.1029,7.1976,0,0
2012-01-19,7.1976,7.387,7.1976,7.1976,0,0
2012-01-20,7.1976,7.2923,7.0082,7.1029,0,0
2012-01-23,7.0082,7.0082,6.724,7.0082,0,0
2012-01-24,7.0082,7.6711,7.0082,7.5764,0,0
2012-01-25,7.5764,8.1447,7.5764,8.1447,0,0
2012-01-26,8.4287,8.7129,8.4287,8.5235,0,0
2012-01-27,8.5235,8.9023,8.5235,8.9023,0,0
2012-01-30,8.8077,8.997,8.8077,8.9023,0,0
2012-01-31,8.9023,9.0917,8.8077,9.0917,0,0
2012-02-01,9.0917,9.0917,8.7129,8.997,0,0
2012-02-02,8.9023,9.0917,8.9023,9.0917,0,0
2012-02-03,8.997,9.1865,8.8077,9.0917,0,0
2012-02-06,8.9023,9.1865,8.9023,8.997,0,0
2012-02-07,8.997,9.0917,8.7129,8.9023,0,0
2012-02-08,8.997,9.0917,8.997,9.0917,0,0
2012-02-09,9.0917,9.0917,8.9023,8.997,0,0
2012-02-10,8.997,8.997,8.7129,8.9023,0,0
2012-02-13,8.9023,9.565,8.9023,9.565,0,0
2012-02-14,9.944,9.944,9.2811,9.3757,0,0
2012-02-15,9.3757,10.039,9.3757,10.039,0,0
2012-02-16,10.039,10.039,9.755,9.944,0,0
2012-02-17,10.039,10.797,10.039,10.134,0,0
2012-02-20,10.607,10.986,10.511,10.89,0,0
2012-02-21,10.986,10.986,10.228,10.228,0,0
2012-02-22,10.228,10.228,9.66,9.944,0,0
2012-02-23,9.849,10.418,9.849,10.134,0,0
2012-02-24,10.134,10.228,9.944,9.944,0,0
2012-02-27,10.039,10.039,9.755,9.944,0,0
2012-02-28,9.944,9.944,9.849,9.849,0,0
2012-02-29,9.3757,9.4714,8.9023,8.9023,0,0
2012-03-01,8.6183,9.4714,8.5235,9.2811,0,0
2012-03-02,9.0917,9.2811,9.0917,9.2811,0,0
2012-03-05,9.1865,9.3757,9.0917,9.1865,0,0
2012-03-06,9.1865,9.1865,8.8077,8.8077,0,0
2012-03-07,8.9023,9.0917,8.7129,9.0917,0,0
2012-03-08,9.0917,9.2811,9.0917,9.2811,0,0
2012-03-09,9.2811,9.2811,9.0917,9.1865,0,0
2012-03-12,9.1865,9.1865,8.9023,8.9023,0,0
2012-03-13,8.997,8.997,8.8077,8.9023,0,0
2012-03-14,8.9023,9.0917,8.9023,8.9023,0,0
2012-03-15,8.9023,8.997,8.9023,8.9023,0,0
2012-03-16,8.7129,8.7129,8.2393,8.3341,0,0
2012-03-19,8.5235,8.7129,8.3341,8.7129,0,0
2012-03-20,8.5235,8.7129,8.4287,8.7129,0,0
2012-03-21,8.4287,8.4287,8.1447,8.1447,0,0
2012-03-22,8.2393,12.123,7.8605,12.123,0,0
2012-03-23,11.744,12.406,11.744,12.311,0,0
2012-03-26,12.311,12.311,11.932,12.217,0,0
2012-03-27,12.217,12.502,12.217,12.502,0,0
2012-03-28,12.502,12.975,12.502,12.975,0,0
2012-03-29,12.786,13.165,12.786,13.069,0,0
2012-03-30,13.165,13.165,12.69,13.069,0,0
2012-04-02,13.069,13.069,12.975,13.069,0,0
2012-04-03,13.069,13.069,12.69,12.69,0,0
2012-04-04,12.786,12.786,12.027,12.027,0,0
2012-04-05,11.839,12.311,11.839,12.027,0,0
2012-04-10,11.839,12.027,11.269,11.365,0,0
2012-04-11,10.89,11.365,10.89,11.365,0,0
2012-04-12,11.365,11.365,11.176,11.365,0,0
2012-04-13,11.365,11.46,11.269,11.269,0,0
2012-04-16,11.46,11.648,11.46,11.554,0,0
2012-04-17,11.365,11.744,11.365,11.46,0,0
2012-04-18,11.46,12.123,11.46,11.932,0,0
2012-04-19,12.123,12.406,11.932,12.123,0,0
2012-04-20,12.406,12.406,12.027,12.311,0,0
2012-04-23,12.217,12.217,11.081,11.554,0,0
2012-04-24,10.511,12.123,10.511,12.123,0,0
2012-04-25,11.554,11.554,11.176,11.176,0,0
2012-04-26,11.176,11.176,10.418,10.511,0,0
2012-04-27,10.418,11.176,10.323,11.176,0,0
2012-04-30,11.176,11.46,11.176,11.46,0,0
2012-05-02,11.554,11.648,11.365,11.46,0,0
2012-05-04,11.554,11.554,11.46,11.554,0,0
2012-05-07,11.365,11.365,10.89,11.269,0,0
2012-05-08,11.365,11.365,11.081,11.081,0,0
2012-05-09,11.176,11.176,10.89,10.89,0,0
2012-05-10,10.89,10.89,10.607,10.89,0,0
2012-05-11,10.607,10.986,10.607,10.702,0,0
2012-05-14,10.702,10.702,10.511,10.607,0,0
2012-05-15,10.607,10.607,10.511,10.511,0,0
2012-05-16,10.323,15.817,9.4714,15.817,0,0
2012-05-17,15.342,15.342,14.68,14.68,0,0
2012-05-18,14.68,15.817,13.922,15.817,0,0
2012-05-21,15.721,17.899,15.721,17.899,0,0
2012-05-22,17.899,18.373,17.805,17.805,0,0
2012-05-23,17.615,17.615,17.237,17.331,0,0
2012-05-24,17.331,17.331,16.668,16.668,0,0
2012-05-25,16.952,16.952,16.384,16.384,0,0
2012-05-28,16.384,16.384,15.817,16.289,0,0
2012-05-29,16.479,16.479,15.91,15.91,0,0
2012-05-30,16.1,16.1,15.153,15.247,0,0
2012-05-31,14.963,14.963,14.111,14.963,0,0
2012-06-01,14.774,15.626,14.49,14.774,0,0
2012-06-04,14.68,14.68,13.543,13.922,0,0
2012-06-05,13.448,13.922,13.069,13.259,0,0
2012-06-06,13.259,13.259,12.88,12.88,0,0
2012-06-08,12.69,13.732,12.69,13.732,0,0
2012-06-11,13.732,14.301,13.732,14.301,0,0
2012-06-12,14.301,14.963,14.301,14.68,0,0
2012-06-13,14.963,16.1,14.963,16.1,0,0
2012-06-14,16.1,17.615,16.1,17.52,0,0
2012-06-15,17.71,18.468,17.52,18.468,0,0
2012-06-18,18.468,18.468,18.468,18.468,0,0
2012-06-19,18.468,18.468,18.183,18.468,0,0
2012-06-20,18.468,18.468,17.047,17.047,0,0
2012-06-21,17.047,17.331,16.005,16.005,0,0
2012-06-22,16.194,16.194,14.963,15.153,0,0
2012-06-25,14.868,14.868,14.301,14.396,0,0
2012-06-26,14.396,15.153,14.396,14.868,0,0
2012-06-27,15.531,15.817,14.68,14.68,0,0
2012-06-28,14.584,15.342,13.732,13.922,0,0
2012-06-29,14.017,14.017,12.596,12.69,0,0
2012-07-02,12.69,12.69,10.986,11.365,0,0
2012-07-03,11.46,11.648,10.323,10.607,0,0
2012-07-04,10.607,10.607,10.134,10.323,0,0
2012-07-05,10.323,10.986,10.323,10.986,0,0
2012-07-06,10.986,11.554,10.986,11.365,0,0
2012-07-09,11.269,11.932,11.176,11.932,0,0
2012-07-10,12.311,12.311,11.648,11.839,0,0
2012-07-11,11.839,11.839,10.986,11.176,0,0
2012-07-12,10.986,10.986,10.702,10.797,0,0
2012-07-13,10.89,11.081,10.89,10.986,0,0
2012-07-16,11.081,11.081,10.89,10.986,0,0
2012-07-17,10.986,10.986,10.797,10.89,0,0
2012-07-18,10.797,11.46,10.797,11.365,0,0
2012-07-19,11.365,11.365,10.986,11.081,0,0
2012-07-20,11.081,11.081,10.89,10.986,0,0
2012-07-23,10.797,10.797,10.511,10.797,0,0
2012-07-24,10.797,10.797,10.511,10.702,0,0
2012-07-25,10.511,10.702,10.511,10.702,0,0
2012-07-26,10.702,10.797,10.323,10.418,0,0
2012-07-27,10.511,10.702,10.228,10.702,0,0
2012-07-30,10.702,10.702,10.702,10.702,0,0
2012-07-31,10.702,10.702,10.228,10.418,0,0
2012-08-01,10.323,10.418,9.4714,10.039,0,0
2012-08-02,10.039,10.797,9.849,10.039,0,0
2012-08-03,10.323,10.323,9.4714,9.755,0,0
2012-08-06,9.755,9.755,9.755,9.755,0,0
2012-08-07,9.755,10.228,9.755,10.228,0,0
2012-08-08,10.323,10.702,10.323,10.511,0,0
2012-08-09,10.511,10.511,10.511,10.511,0,0
2012-08-10,10.511,10.511,10.511,10.511,0,0
2012-08-13,10.323,10.702,10.323,10.702,0,0
2012-08-14,10.702,10.702,10.228,10.228,0,0
2012-08-16,10.228,10.323,10.228,10.323,0,0
2012-08-17,10.323,10.323,10.323,10.323,0,0
2012-08-20,10.511,10.511,10.134,10.418,0,0
2012-08-21,10.418,10.418,10.134,10.418,0,0
2012-08-22,10.511,10.511,10.228,10.418,0,0
2012-08-23,10.418,10.607,10.228,10.607,0,0
2012-08-24,10.607,11.081,10.607,11.081,0,0
2012-08-27,11.176,11.176,10.986,10.986,0,0
2012-08-28,10.702,10.797,10.418,10.702,0,0
2012-08-29,10.702,10.702,10.228,10.702,0,0
2012-08-30,10.702,10.797,10.418,10.702,0,0
2012-08-31,10.418,10.702,9.944,10.607,0,0
2012-09-03,10.607,10.607,10.418,10.607,0,0
2012-09-04,10.702,10.702,10.511,10.607,0,0
2013-11-18,19.699,19.699,19.699,19.699,0,0
2013-11-19,19.51,20.929,19.51,20.835,0,0
2013-11-20,20.835,20.929,20.078,20.646,0,0
2014-03-25,34.946,34.946,34.946,34.946,0,0
2014-03-26,34.946,34.946,34.284,34.663,0,0
2014-03-27,34.567,34.567,33.904,33.999,0,0
2014-03-28,33.904,33.904,32.863,32.957,0,0
2014-03-31,32.957,34.567,32.673,34.567,0,0
2014-04-01,34.567,34.567,32.673,32.957,0,0
2014-04-02,32.957,32.957,32.2,32.578,0,0
2014-04-03,32.01,32.957,32.01,32.957,0,0
2014-04-04,32.485,33.242,32.389,32.957,0,0
2014-04-07,32.485,32.485,32.2,32.2,0,0
2014-04-08,32.389,32.389,32.2,32.2,0,0
2014-04-09,32.2,32.389,32.2,32.294,0,0
2014-04-10,32.389,32.389,32.106,32.2,0,0
2014-04-11,32.106,32.106,31.727,32.01,0,0
2014-04-14,31.822,31.822,31.348,31.348,0,0
2014-04-15,30.401,30.78,30.116,30.116,0,0
2014-04-16,29.927,29.927,28.98,29.737,0,0
2014-04-17,29.833,29.833,29.359,29.359,0,0
2014-04-22,29.359,30.59,29.359,30.59,0,0
2014-04-23,30.59,30.969,30.116,30.116,0,0
2014-04-24,30.022,30.116,29.359,29.359,0,0
2014-04-25,29.453,29.643,29.359,29.359,0,0
2014-04-28,29.359,29.643,29.359,29.643,0,0
2014-04-29,30.022,30.022,29.833,29.833,0,0
2014-04-30,29.927,29.927,29.548,29.548,0,0
2014-05-02,29.833,29.833,29.453,29.453,0,0
2014-05-05,29.833,29.833,28.885,28.98,0,0
2014-05-06,29.074,29.074,28.601,28.98,0,0
2014-05-07,28.98,28.98,27.275,28.222,0,0
2014-05-08,28.128,28.128,27.749,27.749,0,0
2014-05-09,27.37,27.37,26.612,26.612,0,0
2014-05-12,26.14,26.423,25.949,26.423,0,0
2014-05-13,26.328,26.612,26.328,26.328,0,0
2014-05-14,26.612,26.802,26.328,26.328,0,0
2014-05-15,27.086,27.938,27.086,27.559,0,0
2014-05-16,27.086,27.844,26.991,27.37,0,0
2014-05-19,27.37,27.559,26.991,26.991,0,0
2014-05-20,26.991,27.086,26.423,27.086,0,0
2014-05-21,26.423,27.086,26.328,27.086,0,0
2014-05-22,26.991,27.37,26.518,27.37,0,0
2014-05-23,27.37,27.37,26.896,27.086,0,0
2014-05-26,27.559,27.559,27.086,27.086,0,0
2014-05-27,27.086,27.37,21.877,21.877,0,0
2014-05-28,21.877,22.35,21.877,21.971,0,0
2014-05-29,21.877,22.162,21.877,21.971,0,0
2014-05-30,21.971,22.067,21.971,22.067,0,0
2014-06-02,22.35,22.35,22.067,22.067,0,0
2014-06-03,22.35,22.446,21.688,22.067,0,0
2014-06-04,22.067,22.255,22.067,22.255,0,0
2014-06-05,22.162,22.634,22.162,22.446,0,0
2014-06-06,22.634,22.634,22.255,22.634,0,0
2014-06-09,22.634,22.634,22.446,22.446,0,0
2014-06-10,22.54,22.54,22.54,22.54,0,0
2014-06-11,22.54,22.54,22.35,22.35,0,0
2014-06-12,22.446,22.446,22.255,22.255,0,0
2014-06-13,21.877,22.067,21.877,22.067,0,0
2014-06-16,21.877,21.877,21.783,21.783,0,0
2014-06-17,21.783,21.783,21.783,21.783,0,0
2014-06-18,21.783,21.877,21.783,21.877,0,0
2014-06-20,21.688,21.877,21.499,21.877,0,0
2014-06-23,21.592,22.255,21.592,21.877,0,0
2014-06-24,22.255,22.255,21.783,22.255,0,0
2014-06-25,22.067,22.067,21.309,22.067,0,0
2014-06-26,24.539,24.539,22.884,23.176,0,0
2014-06-27,23.176,23.176,22.884,22.884,0,0
2014-06-30,22.689,22.689,22.202,22.689,0,0
2014-07-01,22.3,22.3,21.91,21.91,0,0
2014-07-03,21.716,22.008,21.52,21.91,0,0
2014-07-04,21.91,21.91,21.52,21.52,0,0
2014-07-07,21.52,21.52,20.742,21.326,0,0
2014-07-08,21.326,21.326,21.034,21.131,0,0
2014-07-10,20.838,20.838,20.352,20.742,0,0
2014-07-11,20.254,20.838,20.158,20.838,0,0
2014-07-14,20.352,21.131,20.352,20.936,0,0
2014-07-15,20.936,20.936,20.45,20.742,0,0
2014-07-16,20.742,20.936,20.352,20.936,0,0
2014-07-17,20.158,20.936,20.158,20.936,0,0
2014-07-18,20.936,21.131,20.352,21.131,0,0
2014-07-21,21.131,21.131,20.644,20.936,0,0
2014-07-22,20.644,20.936,20.352,20.838,0,0
2014-07-23,20.742,20.742,20.352,20.45,0,0
2014-07-24,20.352,20.352,20.254,20.254,0,0
2014-07-25,20.06,20.06,19.865,19.865,0,0
2014-07-28,20.06,20.254,20.06,20.06,0,0
2014-07-29,20.06,20.546,19.67,20.546,0,0
2014-07-30,20.352,20.352,20.352,20.352,0,0
2014-07-31,20.158,20.158,20.158,20.158,0,0
2014-08-01,19.865,20.158,19.768,19.962,0,0
2014-08-04,19.962,19.962,19.962,19.962,0,0
2014-08-05,20.254,20.45,19.281,19.281,0,0
2014-08-06,19.281,19.378,18.891,18.989,0,0
2014-08-07,18.989,18.989,18.307,18.307,0,0
2014-08-08,18.307,18.307,17.82,17.917,0,0
2014-08-11,18.891,18.891,18.112,18.112,0,0
2014-08-12,18.404,18.404,18.307,18.307,0,0
2014-08-13,18.112,18.404,18.112,18.404,0,0
2014-08-14,17.82,18.21,17.431,18.21,0,0
2014-08-18,18.21,18.21,18.112,18.112,0,0
2014-08-19,18.112,18.21,18.112,18.112,0,0
2014-08-20,18.21,18.307,18.21,18.307,0,0
2014-08-21,18.307,19.281,18.307,19.281,0,0
2014-08-22,19.476,20.06,19.184,19.281,0,0
2014-08-25,19.573,20.546,19.573,19.962,0,0
2014-08-26,20.06,21.52,20.06,20.45,0,0
2014-08-27,20.644,21.52,20.644,21.424,0,0
2014-08-28,21.424,21.424,19.768,20.45,0,0
2014-08-29,20.45,20.45,16.165,16.165,0,0
2014-09-01,16.165,16.165,15.775,15.775,0,0
2014-09-02,15.775,15.775,15.677,15.775,0,0
2014-09-03,15.873,16.263,15.873,15.97,0,0
2014-09-04,16.067,16.359,16.067,16.067,0,0
2014-09-05,16.165,16.165,15.581,15.775,0,0
2014-09-08,15.581,16.165,15.581,16.165,0,0
2014-09-09,16.165,16.555,15.97,16.555,0,0
2014-09-10,16.457,17.041,16.457,17.041,0,0
2014-09-11,16.943,16.943,15.775,15.873,0,0
2014-09-12,16.165,16.263,15.97,15.97,0,0
2014-09-15,16.165,16.359,16.165,16.359,0,0
2014-09-16,16.359,16.847,16.263,16.457,0,0
2014-09-17,16.749,16.749,16.457,16.457,0,0
2014-09-18,16.359,16.555,16.359,16.555,0,0
2014-09-19,16.749,16.847,16.651,16.749,0,0
2014-09-22,16.749,16.749,16.749,16.749,0,0
2014-09-23,16.555,16.555,15.677,16.263,0,0
2014-09-24,16.165,16.165,15.677,15.677,0,0
2014-09-25,15.677,16.263,15.677,16.263,0,0
2014-09-29,16.165,16.165,16.067,16.067,0,0
2014-09-30,16.067,16.359,15.97,16.359,0,0
2014-10-01,16.067,16.067,15.97,15.97,0,0
2014-10-02,15.873,15.873,15.775,15.775,0,0
2014-10-03,15.775,16.165,15.775,16.165,0,0
2014-10-06,16.165,16.165,15.873,15.873,0,0
2014-10-07,15.873,15.97,15.873,15.97,0,0
2014-10-08,15.97,15.97,15.97,15.97,0,0
2014-10-09,15.97,15.97,15.483,15.483,0,0
2014-10-10,15.581,15.581,14.607,14.801,0,0
2014-10-13,14.801,14.997,14.801,14.899,0,0
2014-10-14,14.899,14.899,14.704,14.801,0,0
2014-10-15,14.997,14.997,14.607,14.607,0,0
2014-10-16,14.704,14.704,14.023,14.12,0,0
2014-10-17,14.217,14.607,14.12,14.607,0,0
2014-10-20,14.607,14.607,14.509,14.509,0,0
2014-10-21,14.509,14.607,14.509,14.607,0,0
2014-10-22,14.412,14.801,14.412,14.801,0,0
2014-10-23,14.704,14.704,14.509,14.509,0,0
2014-10-24,14.801,15.191,14.801,14.899,0,0
2014-10-27,14.899,15.191,14.899,15.093,0,0
2014-10-28,14.997,15.581,14.997,15.483,0,0
2014-10-29,15.775,15.775,15.385,15.385,0,0
2014-10-30,15.581,15.581,15.191,15.483,0,0
2014-10-31,15.385,15.385,15.191,15.289,0,0
2014-11-03,15.289,15.385,15.191,15.191,0,0
2014-11-04,15.191,15.191,15.093,15.191,0,0
2014-11-05,15.289,15.289,15.191,15.191,0,0
2014-11-06,15.093,15.483,14.997,15.093,0,0
2014-11-07,15.385,15.385,14.899,14.899,0,0
2014-11-10,14.801,14.801,14.704,14.801,0,0
2014-11-12,14.801,15.191,14.801,15.093,0,0
2014-11-13,14.899,14.899,14.899,14.899,0,0
2014-11-14,14.899,14.899,13.828,13.828,0,0
2014-11-17,13.828,13.828,13.438,13.438,0,0
2014-11-18,13.438,13.438,13.438,13.438,0,0
2014-11-19,13.536,13.536,13.243,13.243,0,0
2014-11-20,13.243,13.243,12.659,12.659,0,0
2014-11-21,12.951,12.951,12.27,12.27,0,0
2014-11-24,12.27,12.27,11.88,11.978,0,0
2014-11-25,12.172,12.172,11.49,11.49,0,0
2014-11-26,11.49,11.88,11.49,11.88,0,0
2014-11-27,11.88,11.978,11.88,11.978,0,0
2014-11-28,11.978,12.075,11.88,11.978,0,0
2014-12-01,11.88,12.075,11.88,12.075,0,0
2014-12-02,12.075,12.367,12.075,12.075,0,0
2014-12-03,12.464,12.854,12.464,12.854,0,0
2014-12-04,13.243,13.243,13.049,13.243,0,0
2014-12-05,13.243,13.633,12.659,12.951,0,0
2014-12-08,12.659,12.659,11.782,12.659,0,0
2014-12-09,12.464,12.464,12.367,12.464,0,0
2014-12-10,12.27,12.27,11.686,12.172,0,0
2014-12-11,11.782,12.075,11.782,12.075,0,0
2014-12-12,11.782,12.075,11.782,12.075,0,0
2014-12-15,12.172,12.172,12.172,12.172,0,0
2014-12-16,11.88,11.88,11.588,11.686,0,0
2014-12-17,11.686,11.686,11.49,11.49,0,0
2014-12-18,11.49,11.686,11.49,11.49,0,0
2014-12-19,11.686,11.686,11.588,11.588,0,0
2014-12-22,11.686,11.686,11.198,11.394,0,0
2014-12-23,11.394,11.394,10.614,11.198,0,0
2014-12-29,11.102,11.49,11.102,11.296,0,0
2014-12-30,11.49,11.588,11.394,11.588,0,0
2015-01-02,11.49,11.49,11.394,11.394,0,0
2015-01-05,11.394,11.394,11.296,11.296,0,0
2015-01-07,11.296,11.49,11.296,11.49,0,0
2015-01-08,11.49,11.782,11.49,11.782,0,0
2015-01-09,11.782,12.562,11.782,11.978,0,0
2015-01-12,11.978,12.854,11.978,12.854,0,0
2015-01-13,12.951,12.951,12.562,12.562,0,0
2015-01-14,12.464,12.562,12.464,12.562,0,0
2015-01-15,12.464,12.659,12.367,12.659,0,0
2015-01-16,12.367,12.951,12.367,12.951,0,0
2015-01-19,13.049,13.049,12.659,12.659,0,0
2015-01-20,12.854,12.854,12.562,12.562,0,0
2015-01-21,12.464,12.464,12.464,12.464,0,0
2015-01-22,12.464,12.464,12.464,12.464,0,0
2015-01-23,12.464,12.562,12.367,12.367,0,0
2015-01-26,12.562,12.562,12.562,12.562,0,0
2015-01-27,12.562,12.562,12.562,12.562,0,0
2015-01-28,12.562,12.562,12.172,12.172,0,0
2015-01-29,12.27,12.27,12.27,12.27,0,0
2015-01-30,12.172,12.27,12.172,12.27,0,0
2015-02-02,12.27,12.27,12.075,12.075,0,0
2015-02-03,11.978,12.172,11.978,12.172,0,0
2015-02-04,12.367,13.049,12.367,12.854,0,0
2015-02-05,12.951,12.951,12.854,12.854,0,0
2015-02-06,12.854,12.951,12.659,12.951,0,0
2015-02-09,12.951,13.633,12.951,12.951,0,0
2015-02-10,13.049,13.536,12.951,13.536,0,0
2015-02-11,13.536,14.023,13.438,13.536,0,0
2015-02-12,13.828,14.12,13.828,14.12,0,0
2015-02-13,14.12,15.093,14.12,14.704,0,0
2015-02-16,14.704,14.704,14.023,14.412,0,0
2015-02-17,14.509,14.509,14.023,14.023,0,0
2015-02-18,14.023,14.12,13.341,14.023,0,0
2015-02-19,13.828,13.828,13.828,13.828,0,0
2015-02-20,13.828,14.12,13.633,14.12,0,0
2015-02-23,14.12,14.704,14.12,14.607,0,0
2015-02-24,14.607,14.997,14.412,14.509,0,0
2015-02-25,14.801,14.801,14.412,14.607,0,0
2015-02-26,14.704,15.775,14.704,15.677,0,0
2015-02-27,15.775,16.749,15.775,16.359,0,0
2015-03-02,15.97,16.359,15.873,16.067,0,0
2015-03-03,15.97,16.457,14.899,15.581,0,0
2015-03-04,14.997,15.677,14.899,15.385,0,0
2015-03-05,15.483,16.067,15.385,15.775,0,0
2015-03-06,15.775,15.97,15.385,15.97,0,0
2015-03-09,16.067,16.359,15.775,16.165,0,0
2015-03-10,16.067,16.067,15.483,15.873,0,0
2015-03-11,15.483,15.483,14.704,15.385,0,0
2015-03-12,15.093,15.093,14.899,14.899,0,0
2015-03-13,14.997,14.997,14.704,14.801,0,0
2015-03-16,14.899,15.191,14.899,15.093,0,0
2015-03-17,15.191,15.581,14.997,15.385,0,0
2015-03-18,15.581,15.873,15.289,15.289,0,0
2015-03-19,15.191,15.191,14.997,15.191,0,0
2015-03-20,14.997,14.997,13.925,13.925,0,0
2015-03-23,14.315,42.262,13.828,42.262,0,0
2015-03-24,41.872,43.138,41.872,43.138,0,0
2015-03-25,43.138,43.138,41.678,42.944,0,0
2015-03-26,42.944,43.236,41.58,43.042,0,0
2015-03-30,43.236,43.236,43.138,43.138,0,0
2015-03-31,43.138,43.138,42.262,43.138,0,0
2015-04-01,43.042,43.042,41.678,43.042,0,0
2015-04-02,41.386,43.042,41.386,43.042,0,0
2015-04-07,42.652,42.944,41.872,42.944,0,0
2015-04-08,41.872,42.748,41.776,42.748,0,0
2015-04-09,42.652,42.652,41.483,42.456,0,0
2015-04-10,42.944,42.944,42.164,42.164,0,0
2015-04-13,41.678,42.36,41.678,42.262,0,0
2015-04-14,42.846,42.846,42.262,42.262,0,0
2015-04-15,41.872,41.872,41.58,41.58,0,0
2015-04-16,41.776,42.262,41.776,42.164,0,0
2015-04-17,42.36,42.846,41.58,41.58,0,0
2015-04-20,41.58,41.872,41.58,41.58,0,0
2015-04-21,41.678,41.678,41.094,41.191,0,0
2015-04-22,40.899,41.58,40.704,41.58,0,0
2015-04-23,41.872,41.872,41.872,41.872,0,0
2015-04-24,41.483,41.483,41.483,41.483,0,0
2015-04-27,41.483,41.872,41.386,41.872,0,0
2015-04-28,42.748,42.748,42.164,42.164,0,0
2015-04-29,42.164,44.502,42.068,44.015,0,0
2015-04-30,43.722,43.722,40.802,43.042,0,0
2016-03-18,27.039,27.039,27.039,27.039,0,0
2016-03-21,27.433,27.433,27.039,27.039,0,0
2016-03-22,26.94,27.039,26.841,27.039,0,0
2016-03-23,27.137,27.927,26.94,27.927,0,0
2016-03-24,27.532,28.617,27.532,28.617,0,0
2016-03-29,29.012,29.012,28.124,28.124,0,0
2016-03-30,28.124,28.42,28.025,28.321,0,0
2016-03-31,28.321,28.321,27.828,28.025,0,0
2016-04-01,27.729,27.729,27.631,27.631,0,0
2016-04-04,27.828,28.321,27.828,28.321,0,0
2016-04-05,28.321,28.321,28.321,28.321,0,0
2016-04-06,28.321,28.321,28.223,28.223,0,0
2016-04-07,28.321,28.321,27.433,27.433,0,0
2016-04-08,27.631,27.631,27.236,27.236,0,0
2016-04-11,27.236,27.631,25.854,27.631,0,0
2016-04-12,27.729,27.729,27.631,27.631,0,0
2016-04-13,27.729,28.124,27.729,27.927,0,0
2016-04-14,27.927,27.927,27.927,27.927,0,0
2016-04-15,28.025,28.025,28.025,28.025,0,0
2016-04-18,28.42,28.519,28.42,28.519,0,0
2016-04-19,28.124,28.321,27.927,27.927,0,0
2016-04-20,28.025,28.025,27.631,27.631,0,0
2016-04-21,27.631,27.631,27.631,27.631,0,0
2016-04-22,27.631,30.196,27.631,29.604,0,0
2016-04-25,29.604,29.999,29.604,29.999,0,0
2016-04-26,30.492,30.591,30.492,30.591,0,0
2016-04-27,30.591,30.591,30.295,30.492,0,0
2016-04-28,30.295,30.492,30.295,30.492,0,0
2016-04-29,30.295,30.295,29.604,30.196,0,0
2016-05-02,30.295,30.492,30.295,30.492,0,0
2016-05-04,30.492,30.69,30.492,30.69,0,0
2016-05-05,30.69,30.69,30.69,30.69,0,0
2016-05-06,30.69,30.69,30.591,30.69,0,0
2016-05-09,30.986,31.183,30.986,31.183,0,0
2016-05-10,31.183,32.269,31.183,31.874,0,0
2016-05-11,31.874,31.874,31.874,31.874,0,0
2016-05-12,32.071,32.17,31.775,31.973,0,0
2016-05-13,32.269,32.269,14.802,14.802,0,0
2016-05-16,14.407,14.407,13.914,14.21,0,0
2016-05-17,14.21,14.309,13.815,14.21,0,0
2016-05-18,14.21,14.21,14.111,14.111,0,0
2016-05-19,14.111,14.111,14.111,14.111,0,0
2016-05-20,14.111,14.111,14.111,14.111,0,0
2016-05-23,14.013,14.013,13.717,13.914,0,0
2016-05-24,13.914,13.914,13.914,13.914,0,0
2016-05-25,13.914,13.914,13.914,13.914,0,0
2016-05-27,13.914,13.914,13.914,13.914,0,0
2016-05-30,13.914,13.914,13.914,13.914,0,0
2016-05-31,13.914,13.914,13.914,13.914,0,0
2016-06-01,13.914,13.914,13.223,13.618,0,0
2016-06-02,13.618,13.717,13.618,13.717,0,0
2016-06-03,13.618,13.618,12.927,13.125,0,0
2016-06-06,13.125,13.125,12.927,12.927,0,0
2016-06-07,12.927,12.927,12.434,12.73,0,0
2016-06-08,12.73,12.927,12.335,12.73,0,0
2016-06-09,12.73,12.73,12.631,12.631,0,0
2016-06-10,12.73,12.828,12.631,12.828,0,0
2016-06-13,12.631,12.73,12.631,12.73,0,0
2016-06-14,12.434,12.434,12.039,12.039,0,0
2016-06-15,12.039,12.039,11.842,11.842,0,0
2016-06-16,11.842,11.842,11.842,11.842,0,0
2016-06-17,11.743,11.743,11.644,11.743,0,0
2016-06-20,11.743,11.743,11.546,11.546,0,0
2016-06-21,11.743,11.743,11.546,11.546,0,0
2016-06-22,11.644,11.743,11.546,11.743,0,0
2016-06-23,11.644,11.94,11.644,11.94,0,0
2016-06-24,11.151,12.039,10.559,12.039,0,0
2016-06-27,11.842,11.842,11.546,11.842,0,0
2016-06-28,11.94,12.039,11.94,12.039,0,0
2016-06-29,13.2,13.2,12.2,12.5,0,0
2016-06-30,12.5,12.5,12.4,12.5,0,0
2016-07-01,12.5,12.9,12.5,12.9,0,0
2016-07-04,12.8,12.8,12.8,12.8,0,0
2016-07-05,12.8,12.9,12.8,12.9,0,0
2016-07-06,12.9,12.9,12.4,12.4,0,0
2016-07-07,12.7,12.7,12.7,12.7,0,0
2016-07-08,12.7,12.7,12.6,12.6,0,0
2016-07-11,12.6,12.6,12.6,12.6,0,0
2016-07-12,12.6,12.6,12.6,12.6,0,0
2016-07-13,12.7,13.2,12.6,13.2,0,0
2016-07-14,13.2,13.2,12.9,12.9,0,0
2016-07-15,12.7,12.8,12.7,12.7,0,0
2016-07-18,12.7,12.7,12.5,12.5,0,0
2016-07-19,12.5,12.5,12.5,12.5,0,0
2016-07-20,12.4,12.4,12.4,12.4,0,0
2016-07-21,12.3,12.3,12.2,12.2,0,0
2016-07-22,12.3,12.3,11.9,12.1,0,0
2016-07-25,12.1,12.2,12.1,12.2,0,0
2016-07-26,12.1,12.2,12.1,12.2,0,0
2016-07-27,12.2,12.4,12.2,12.4,0,0
2016-07-28,12.3,12.3,12,12.3,0,0
2016-07-29,12.3,12.3,12.3,12.3,0,0
2016-08-01,12.3,12.3,12.3,12.3,0,0
2016-08-02,12.3,12.4,11.9,12.4,0,0
2016-08-03,12.3,12.3,11.9,12.2,0,0
2016-08-04,12.2,12.2,12.2,12.2,0,0
2016-08-05,12.2,12.2,11.9,11.9,0,0
2016-08-08,11.9,11.9,11.7,11.9,0,0
2016-08-09,11.9,11.9,11.7,11.7,0,0
2016-08-10,11.8,11.8,11.8,11.8,0,0
2016-08-11,11.8,11.9,11.8,11.9,0,0
2016-08-12,11.9,12.5,11.9,12.5,0,0
2016-08-16,12.4,12.7,12.4,12.7,0,0
2016-08-17,12.7,12.9,12.7,12.8,0,0
2016-08-18,12.7,12.7,12.5,12.5,0,0
2016-08-19,12.5,12.5,12.5,12.5,0,0
2016-08-24,12.4,12.5,12.3,12.5,0,0
2016-08-25,12.6,12.6,12.5,12.5,0,0
2016-08-26,12.3,12.3,12,12,0,0
2016-08-30,15,15,15,15,0,0
2016-08-31,15,15,15,15,0,0
2016-09-01,15,15,14.8,14.8,0,0
2016-09-02,14.7,14.7,14.3,14.3,0,0
2016-09-05,14.2,14.3,13.9,14.1,0,0
2016-09-06,14.3,14.3,13.9,14.1,0,0
2016-09-07,14.1,14.3,14.1,14.3,0,0
2016-09-08,14.4,14.4,14.4,14.4,0,0
2016-09-09,14.4,14.4,13.9,13.9,0,0
2016-09-12,13.7,13.7,13.7,13.7,0,0
2016-09-13,13.7,13.7,13.3,13.7,0,0
2016-09-14,13.3,13.3,13.3,13.3,0,0
2016-09-15,13.4,13.4,13.4,13.4,0,0
2016-09-16,13.4,13.5,13.4,13.5,0,0
2016-09-19,13.5,13.7,13.4,13.7,0,0
2016-09-20,13.3,13.5,13.2,13.5,0,0
2016-09-21,13.5,13.5,13.5,13.5,0,0
2016-09-22,13.5,13.5,13.5,13.5,0,0
2016-09-23,13.5,13.5,13.1,13.3,0,0
2016-09-26,13.3,13.3,13.3,13.3,0,0
2016-09-27,13.1,13.3,13.1,13.2,0,0
2016-09-28,13,13.2,13,13.2,0,0
2016-09-29,13.2,13.2,13.2,13.2,0,0
2016-09-30,13.2,13.2,13.2,13.2,0,0
2016-10-03,13.2,13.2,13.2,13.2,0,0
2016-10-04,13.2,13.2,13.1,13.1,0,0
2016-10-05,13.2,13.2,13.2,13.2,0,0
2016-10-06,13.2,13.2,13.1,13.1,0,0
2016-10-07,13.1,13.1,13.1,13.1,0,0
2016-10-10,13,13.2,13,13.2,0,0
2016-10-11,13.2,13.2,13.1,13.1,0,0
2016-10-12,13.1,13.1,12.8,12.9,0,0
2016-10-13,12.9,12.9,12.9,12.9,0,0
2016-10-14,12.9,12.9,12.9,12.9,0,0
2016-10-17,12.8,12.8,11.7,12.7,0,0
2016-10-21,13.1,13.1,12.7,12.7,0,0
2016-10-24,12.7,12.7,12.7,12.7,0,0
2016-10-25,13.1,13.1,12.9,12.9,0,0
2016-10-26,12.9,12.9,12.9,12.9,0,0
2016-10-27,12.5,12.7,12.5,12.7,0,0
2016-10-31,12.7,12.7,12.4,12.7,0,0
2016-11-03,12.6,12.7,12.1,12.1,0,0
2016-11-04,12.7,12.7,12.1,12.7,0,0
2016-11-09,12.6,12.7,12.4,12.7,0,0
2016-11-10,12.3,12.9,12.3,12.9,0,0
2016-11-14,12.5,12.9,12.4,12.9,0,0
