Date,Open,High,Low,Close,Volume,OpenInt
2009-01-07,4.8962,4.8962,4.8962,4.8962,0,0
2009-01-08,4.7353,4.8016,4.7353,4.8016,0,0
2009-01-12,4.7732,5.1141,4.7732,4.8299,0,0
2009-01-13,4.7069,5.0951,4.7069,5.0951,0,0
2009-01-14,5.0951,5.2277,4.8678,5.1614,0,0
2009-01-15,4.9626,5.1614,4.9626,4.9626,0,0
2009-01-16,4.849,5.0857,4.849,4.8962,0,0
2009-01-19,5.1898,5.1898,5.1898,5.1898,0,0
2009-01-20,4.8299,4.991,4.7353,4.991,0,0
2009-01-21,5.0004,5.0004,4.8016,4.8016,0,0
2009-01-22,4.7637,4.8962,4.7637,4.8962,0,0
2009-01-23,4.9815,4.9815,4.7069,4.9626,0,0
2009-01-26,4.9815,4.9815,4.6216,4.6879,0,0
2009-01-27,4.6879,4.6879,4.5838,4.6595,0,0
2009-01-28,4.6879,4.6879,4.6595,4.6879,0,0
2009-01-29,4.6311,4.6311,4.6311,4.6311,0,0
2009-01-30,4.5742,4.5742,4.5269,4.5648,0,0
2009-02-02,4.6311,4.6311,3.9681,4.2238,0,0
2009-02-03,4.2238,4.2238,4.025,4.025,0,0
2009-02-04,4.025,4.025,3.826,3.9018,0,0
2009-02-05,3.6272,3.9587,3.4189,3.8545,0,0
2009-02-06,3.8545,4.6216,3.8545,4.1103,0,0
2009-02-09,3.8924,4.1387,3.8924,4.1387,0,0
2009-02-10,4.2428,4.3849,4.025,4.3849,0,0
2009-02-11,4.4796,4.6216,4.3659,4.3849,0,0
2009-02-12,4.4985,4.4985,4.4985,4.4985,0,0
2009-02-13,4.4985,4.5459,4.4985,4.5459,0,0
2009-02-16,4.4322,4.4985,4.025,4.025,0,0
2009-02-17,3.8924,3.8924,3.6367,3.6367,0,0
2009-02-18,3.5515,3.5515,3.4757,3.542,0,0
2009-02-19,3.6272,3.6272,3.6178,3.6178,0,0
2009-02-20,3.6178,3.6178,3.6178,3.6178,0,0
2009-02-23,3.4567,3.6178,3.4567,3.6083,0,0
2009-02-24,3.6178,3.9587,3.3526,3.9587,0,0
2009-02-25,3.8545,4.2901,3.8545,4.025,0,0
2009-02-26,4.0629,4.2238,4.0629,4.2238,0,0
2009-02-27,4.025,4.1575,4.025,4.1575,0,0
2009-03-02,4.0724,4.0724,1.2311,1.2311,0,0
2009-03-03,1.1744,1.1839,1.1554,1.1744,0,0
2009-03-04,1.146,1.2123,1.146,1.2123,0,0
2009-03-05,1.2217,1.269,1.2027,1.269,0,0
2009-03-06,1.2406,1.269,1.1554,1.269,0,0
2009-03-09,1.2027,1.2027,1.2027,1.2027,0,0
2009-03-10,1.2027,1.2027,1.1648,1.1648,0,0
2009-03-11,1.1648,1.1839,1.1648,1.1839,0,0
2009-03-12,1.1648,1.1839,1.1648,1.1839,0,0
2009-03-13,1.1648,1.3353,1.1648,1.3353,0,0
2009-03-16,1.2123,1.288,1.2123,1.2596,0,0
2009-03-17,1.3353,1.3353,1.3069,1.3069,0,0
2009-03-18,1.3353,1.3353,1.3259,1.3353,0,0
2009-03-19,1.3259,1.3638,1.3259,1.3638,0,0
2009-03-20,1.3732,1.3732,1.3732,1.3732,0,0
2009-03-23,1.3922,1.4584,1.3732,1.4584,0,0
2009-03-24,1.468,1.4774,1.4584,1.4584,0,0
2009-03-25,1.4774,1.4774,1.449,1.449,0,0
2009-03-26,1.5153,1.5153,1.5153,1.5153,0,0
2009-03-27,1.5153,1.5153,1.4963,1.4963,0,0
2009-03-30,1.4963,1.4963,1.4963,1.4963,0,0
2009-03-31,1.4963,1.4963,1.4963,1.4963,0,0
2009-04-01,1.4963,1.4963,1.4205,1.4205,0,0
2009-04-02,1.4396,1.5153,1.4205,1.5153,0,0
2009-04-03,1.4963,1.5153,1.4963,1.5153,0,0
2009-04-06,1.5153,1.5247,1.5153,1.5247,0,0
2009-04-07,1.5438,1.5531,1.5342,1.5438,0,0
2009-04-08,1.5438,1.5626,1.5247,1.5626,0,0
2009-04-09,1.5721,1.6384,1.5721,1.6384,0,0
2009-04-14,1.6384,1.6384,1.5721,1.5721,0,0
2009-04-15,1.5626,1.5721,1.5626,1.5721,0,0
2009-04-16,1.5438,1.6384,1.5438,1.6384,0,0
2009-04-17,1.6005,1.6384,1.6005,1.6384,0,0
2009-04-20,1.6289,1.6289,1.5438,1.5531,0,0
2009-04-21,1.5531,1.6005,1.5531,1.5626,0,0
2009-04-22,1.5626,1.6857,1.5626,1.6857,0,0
2009-04-23,1.6952,1.7994,1.6952,1.7899,0,0
2009-04-24,1.8089,1.8468,1.7899,1.8468,0,0
2009-04-27,1.8562,1.8562,1.6952,1.7899,0,0
2009-04-28,1.8657,2.4244,1.8657,2.2729,0,0
2009-04-29,2.5381,2.5381,2.2729,2.3582,0,0
2009-04-30,2.3676,2.3676,2.2825,2.3298,0,0
2009-05-04,2.3676,2.3676,2.2919,2.3298,0,0
2009-05-05,2.3676,2.4055,2.3676,2.3676,0,0
2009-05-06,2.3676,2.3676,2.3582,2.3582,0,0
2009-05-07,2.3582,2.3582,2.2729,2.3298,0,0
2009-05-08,2.2729,2.3013,2.2729,2.3013,0,0
2009-05-11,2.3298,2.3865,2.3298,2.3865,0,0
2009-05-12,2.3865,2.4434,2.3676,2.3676,0,0
2009-05-13,2.3676,2.3676,2.2634,2.2634,0,0
2009-05-14,2.254,2.2634,2.254,2.254,0,0
2009-05-15,2.2729,2.2729,2.1877,2.1877,0,0
2009-05-18,2.235,2.3298,2.1783,2.1783,0,0
2009-05-19,2.235,2.235,2.235,2.235,0,0
2009-05-20,2.2729,2.2729,2.2729,2.2729,0,0
2009-05-21,2.2162,2.2919,2.1783,2.2825,0,0
2009-05-22,2.2825,2.2919,2.2446,2.2919,0,0
2009-05-25,2.3203,2.3203,2.2729,2.2919,0,0
2009-05-26,2.2446,2.3108,2.2446,2.3108,0,0
2009-05-27,2.3108,2.3108,2.2729,2.2729,0,0
2009-05-28,2.2729,2.2729,2.2729,2.2729,0,0
2009-05-29,2.2919,2.3013,2.2825,2.3013,0,0
2009-06-01,2.3013,2.3961,2.2919,2.3676,0,0
2009-06-02,2.415,2.434,2.3676,2.3676,0,0
2009-06-03,2.3771,2.4244,2.3676,2.3771,0,0
2009-06-04,2.3961,2.434,2.3771,2.434,0,0
2009-06-05,2.4434,2.4528,2.4434,2.4434,0,0
2009-06-08,2.4434,2.4623,2.4244,2.4623,0,0
2009-06-09,2.4623,2.6423,2.4623,2.6423,0,0
2009-06-10,2.6518,2.7465,2.6518,2.737,0,0
2009-06-12,2.5761,2.8033,2.5761,2.8033,0,0
2009-06-15,2.6518,2.7086,2.614,2.7086,0,0
2009-06-16,2.7086,2.7086,2.614,2.7086,0,0
2009-06-17,2.7654,2.7654,2.6328,2.737,0,0
2009-06-18,2.7275,2.7275,2.6328,2.6328,0,0
2009-06-19,2.5761,2.5761,2.4434,2.4907,0,0
2009-06-22,2.5476,2.5476,2.5381,2.5381,0,0
2009-06-23,2.3676,2.5191,2.3676,2.4623,0,0
2009-06-24,2.4434,2.4434,2.3676,2.4244,0,0
2009-06-25,2.4244,2.4813,2.4244,2.4244,0,0
2009-06-26,2.4813,2.4813,2.4434,2.4719,0,0
2009-06-29,2.4813,2.4813,2.415,2.415,0,0
2009-06-30,2.4244,2.8128,2.3865,2.7465,0,0
2009-07-01,2.6518,2.8033,2.6518,2.8033,0,0
2009-07-02,2.8033,2.8033,2.7654,2.7844,0,0
2009-07-03,2.7844,2.7844,2.6518,2.7181,0,0
2009-07-06,2.6518,2.7465,2.614,2.7465,0,0
2009-07-07,2.6518,2.7654,2.614,2.6802,0,0
2009-07-08,2.6518,2.6518,2.5949,2.5949,0,0
2009-07-09,2.6518,2.7181,2.5949,2.6896,0,0
2009-07-10,2.6896,2.6896,2.6328,2.6518,0,0
2009-07-13,2.737,2.737,2.6896,2.6896,0,0
2009-07-14,2.6612,2.6612,2.6612,2.6612,0,0
2009-07-15,2.6518,2.6518,2.557,2.6518,0,0
2009-07-16,2.557,2.7275,2.557,2.7275,0,0
2009-07-17,2.6612,2.6612,2.6612,2.6612,0,0
2009-07-20,2.7275,2.7275,2.6707,2.7181,0,0
2009-07-21,2.7181,2.8222,2.7181,2.7654,0,0
2009-07-22,2.8128,2.8222,2.8128,2.8128,0,0
2009-07-23,2.8128,2.8128,2.7465,2.8128,0,0
2009-07-24,2.8128,2.8128,2.8128,2.8128,0,0
2009-07-27,2.8128,2.8128,2.6991,2.7938,0,0
2009-07-28,2.7938,2.7938,2.7086,2.7938,0,0
2009-07-29,2.6612,2.7938,2.6612,2.7938,0,0
2009-07-30,2.7938,2.7938,2.6707,2.7844,0,0
2009-07-31,2.7465,2.7465,2.6991,2.6991,0,0
2009-08-03,2.7275,2.7275,2.6423,2.6423,0,0
2009-08-04,2.6518,2.7465,2.6423,2.6707,0,0
2009-08-05,2.6612,2.6896,2.6612,2.6896,0,0
2009-08-06,2.6896,2.7465,2.6896,2.7465,0,0
2009-08-07,2.6991,2.7465,2.6991,2.7465,0,0
2009-08-10,2.7749,2.7844,2.7465,2.7844,0,0
2009-08-11,2.7275,2.9359,2.7275,2.9359,0,0
2009-08-12,2.917,2.9359,2.8033,2.917,0,0
2009-08-13,2.917,2.917,2.8507,2.8507,0,0
2009-08-14,2.917,2.917,2.8412,2.8507,0,0
2009-08-17,2.8412,2.9264,2.7938,2.9264,0,0
2009-08-18,2.9264,2.9359,2.7938,2.9359,0,0
2009-08-19,2.9074,2.9359,2.9074,2.9359,0,0
2009-08-20,3.0116,3.1822,2.9548,3.1822,0,0
2009-08-21,3.2957,3.3242,3.2957,3.3242,0,0
2009-08-24,3.3336,3.3336,3.1536,3.1631,0,0
2009-08-25,3.2294,3.4757,3.2294,3.4757,0,0
2009-08-26,3.5799,3.8072,3.4757,3.6935,0,0
2009-08-27,3.6935,3.6935,3.4757,3.4757,0,0
2009-08-28,3.5988,3.7882,3.4852,3.542,0,0
2009-08-31,3.542,3.542,3.3242,3.4567,0,0
2009-09-01,3.4567,3.5515,3.3715,3.4567,0,0
2009-09-02,3.381,3.4567,3.1915,3.2294,0,0
2009-09-03,3.2294,3.2294,3.1727,3.1915,0,0
2009-09-04,3.201,3.201,3.1915,3.1915,0,0
2009-09-07,3.1158,3.1158,3.0969,3.0969,0,0
2009-09-08,3.1158,3.2578,3.1158,3.2578,0,0
2009-09-09,3.3431,3.3431,3.2578,3.2578,0,0
2009-09-10,3.4567,3.4567,3.1064,3.1158,0,0
2009-09-11,3.1158,3.1443,3.0495,3.0495,0,0
2009-09-14,3.1822,3.1822,3.0495,3.0495,0,0
2009-09-15,3.0495,3.1536,3.0495,3.1536,0,0
2009-09-16,3.1915,3.22,3.1536,3.1536,0,0
2009-09-17,3.1915,3.201,3.1536,3.201,0,0
2009-09-18,3.0969,3.1348,3.0969,3.1348,0,0
2009-09-21,3.1915,3.1915,3.1348,3.1915,0,0
2009-09-22,3.1727,3.1915,3.1727,3.1915,0,0
2009-09-23,3.1158,3.1158,3.1158,3.1158,0,0
2009-09-24,3.0873,3.1727,3.0495,3.1727,0,0
2009-09-25,3.1158,3.1158,3.059,3.059,0,0
2009-09-28,2.9927,3.059,2.9453,2.9737,0,0
2009-09-29,2.917,2.917,2.917,2.917,0,0
2009-09-30,2.917,2.9453,2.917,2.9453,0,0
2009-10-01,2.8695,2.9453,2.8601,2.8601,0,0
2009-10-02,2.8507,2.8601,2.8507,2.8601,0,0
2009-10-05,2.8601,2.8601,2.8601,2.8601,0,0
2009-10-06,2.8791,3.0116,2.8791,3.0116,0,0
2009-10-07,3.0306,3.1158,3.0306,3.0495,0,0
2009-10-08,3.0873,3.0873,3.0495,3.0495,0,0
2009-10-09,3.1252,3.1727,3.0495,3.1631,0,0
2009-10-12,3.1536,3.1536,3.1536,3.1536,0,0
2009-10-13,3.1631,3.2106,3.1536,3.2106,0,0
2009-10-14,3.2106,3.2106,3.1727,3.1727,0,0
2009-10-15,3.2106,3.2106,3.1915,3.2106,0,0
2009-10-16,3.2106,3.2106,3.1915,3.1915,0,0
2009-10-19,3.1915,3.2106,3.1252,3.1915,0,0
2009-10-20,3.1252,3.1252,3.0306,3.1064,0,0
2009-10-21,2.8695,3.0873,2.8695,2.9833,0,0
2009-10-22,2.9833,3.0306,2.9833,3.0306,0,0
2009-10-23,2.9643,2.9643,2.9643,2.9643,0,0
2009-10-26,3.0306,3.0306,2.898,2.898,0,0
2009-10-27,2.8507,2.8791,2.8507,2.8791,0,0
2009-10-28,2.8222,2.898,2.8222,2.8791,0,0
2009-10-29,2.8316,2.8791,2.8316,2.8791,0,0
2009-10-30,2.8791,3.0306,2.8791,3.0306,0,0
2009-11-02,3.0306,3.0306,2.9833,2.9833,0,0
2009-11-03,2.9737,2.9737,2.9737,2.9737,0,0
2009-11-04,2.9737,2.9927,2.9737,2.9927,0,0
2009-11-05,3.0116,3.0116,2.9359,2.9359,0,0
2009-11-06,2.9737,2.9737,2.8695,2.8695,0,0
2009-11-09,2.9074,2.9074,2.8695,2.8695,0,0
2009-11-10,2.9264,2.9264,2.8412,2.8507,0,0
2009-11-12,2.8695,2.8791,2.8507,2.8507,0,0
2009-11-13,2.8222,2.8507,2.6707,2.6707,0,0
2009-11-16,2.6991,2.6991,2.6423,2.6707,0,0
2009-11-17,2.6328,2.6328,2.6328,2.6328,0,0
2009-11-18,2.737,2.737,2.6707,2.6707,0,0
2009-11-19,2.6707,2.6707,2.6707,2.6707,0,0
2009-11-20,2.6707,2.6707,2.6328,2.6328,0,0
2009-11-23,2.6707,2.6707,2.6707,2.6707,0,0
2009-11-24,2.6328,2.6707,2.614,2.6707,0,0
2009-11-25,2.6707,2.6707,2.6707,2.6707,0,0
2009-11-26,2.6707,2.6707,2.5854,2.5854,0,0
2009-11-27,2.6707,2.6707,2.5191,2.5191,0,0
2009-11-30,2.5476,2.6707,2.5476,2.6707,0,0
2009-12-01,2.6707,2.6707,2.6707,2.6707,0,0
2009-12-02,2.6707,2.6707,2.5002,2.5476,0,0
2009-12-03,2.6233,2.6707,2.5949,2.5949,0,0
2009-12-04,2.557,2.5949,2.557,2.5949,0,0
2009-12-07,2.5761,2.5949,2.5761,2.5949,0,0
2009-12-08,2.5949,2.6044,2.5381,2.5381,0,0
2009-12-09,2.5476,2.5476,2.4907,2.4907,0,0
2009-12-10,2.4907,2.5002,2.4813,2.4813,0,0
2009-12-11,2.5381,2.5381,2.4719,2.5002,0,0
2009-12-14,2.4719,2.4907,2.4719,2.4907,0,0
2009-12-15,2.4719,2.4719,2.3961,2.434,0,0
2009-12-16,2.4623,2.4623,2.3961,2.3961,0,0
2009-12-17,2.4719,2.4719,2.2919,2.3676,0,0
2009-12-18,2.3582,2.5476,2.3582,2.5002,0,0
2009-12-21,2.5665,2.6328,2.5002,2.614,0,0
2009-12-22,2.6518,2.6612,2.614,2.6328,0,0
2009-12-23,2.6707,2.6707,2.5476,2.5476,0,0
2009-12-28,2.5286,2.5476,2.4907,2.5191,0,0
2009-12-29,2.614,2.6707,2.5191,2.6518,0,0
2009-12-30,2.6707,2.737,2.6328,2.6707,0,0
2009-12-31,2.6991,2.6991,2.5854,2.5854,0,0
2010-01-04,2.6518,2.6518,2.5854,2.6328,0,0
2010-01-05,2.6612,2.6707,2.6423,2.6423,0,0
2010-01-06,2.6423,2.6423,2.6233,2.6423,0,0
2010-01-07,2.6233,2.6328,2.6044,2.6328,0,0
2010-01-08,2.6423,2.6707,2.6423,2.6518,0,0
2010-01-11,2.6991,2.6991,2.6328,2.6707,0,0
2010-01-12,2.6991,2.6991,2.557,2.6707,0,0
2010-01-13,2.6612,2.6612,2.6328,2.6328,0,0
2010-01-14,2.6328,2.6328,2.5854,2.5854,0,0
2010-01-15,2.5854,2.6802,2.5854,2.6802,0,0
2010-01-18,2.6518,2.7086,2.6518,2.6707,0,0
2010-01-19,2.6991,2.7086,2.6612,2.7086,0,0
2010-01-20,2.7086,2.7086,2.6707,2.6991,0,0
2010-01-21,2.7086,2.7086,2.6233,2.6612,0,0
2010-01-22,2.6612,2.6612,2.5854,2.5854,0,0
2010-01-25,2.6044,2.6707,2.6044,2.614,0,0
2010-01-26,2.614,2.614,2.614,2.614,0,0
2010-01-27,2.6707,2.6707,2.614,2.614,0,0
2010-01-28,2.6233,2.6707,2.5949,2.6707,0,0
2010-01-29,2.6707,2.6707,2.6707,2.6707,0,0
2010-02-01,2.557,2.6802,2.557,2.6802,0,0
2010-02-02,2.6707,2.6707,2.6707,2.6707,0,0
2010-02-03,2.6707,2.6802,2.6707,2.6802,0,0
2010-02-04,2.6802,2.6802,2.5854,2.5854,0,0
2010-02-05,2.5854,2.6518,2.5854,2.6518,0,0
2010-02-08,2.6518,2.6518,2.5854,2.6328,0,0
2010-02-09,2.6707,2.6707,2.6707,2.6707,0,0
2010-02-10,2.6707,2.6896,2.6044,2.6896,0,0
2010-02-11,2.6896,2.6896,2.6707,2.6707,0,0
2010-02-12,2.6707,2.6707,2.6707,2.6707,0,0
2010-02-15,2.6707,2.6991,2.5854,2.6991,0,0
2010-02-16,2.7181,2.737,2.7181,2.737,0,0
2010-02-17,2.737,2.8316,2.6991,2.8316,0,0
2010-02-18,2.8885,2.9453,2.8885,2.8885,0,0
2010-02-19,2.8885,2.8885,2.8885,2.8885,0,0
2010-02-22,2.9359,2.9359,2.8412,2.8695,0,0
2010-02-23,2.8695,2.8695,2.8507,2.8695,0,0
2010-02-24,2.9074,2.9927,2.8222,2.917,0,0
2010-02-25,2.9927,2.9927,2.9074,2.9927,0,0
2010-02-26,2.8316,2.9927,2.7844,2.7844,0,0
2010-03-01,2.7654,2.7654,2.737,2.7559,0,0
2010-03-02,2.6044,2.7749,2.6044,2.7559,0,0
2010-03-03,2.7844,2.7844,2.6896,2.7181,0,0
2010-03-04,2.6896,2.8222,2.6896,2.7938,0,0
2010-03-05,2.8412,2.8412,2.7938,2.7938,0,0
2010-03-08,2.7938,2.8885,2.6896,2.8885,0,0
2010-03-09,2.8316,2.9453,2.8222,2.9453,0,0
2010-03-10,2.9453,2.9453,2.917,2.9453,0,0
2010-03-11,2.9453,2.9927,2.9359,2.9737,0,0
2010-03-12,2.9737,2.9737,2.9453,2.9737,0,0
2010-03-15,2.9737,2.9737,2.9453,2.9453,0,0
2010-03-16,2.9927,2.9927,2.9927,2.9927,0,0
2010-03-17,3.0211,3.0495,3.0022,3.0022,0,0
2010-03-18,3.078,3.078,2.9833,2.9927,0,0
2010-03-19,2.917,2.9453,2.917,2.9359,0,0
2010-03-22,2.9359,2.9359,2.8222,2.8222,0,0
2010-03-23,2.8222,2.8222,2.6707,2.6707,0,0
2010-03-24,2.6707,2.6707,2.5854,2.6233,0,0
2010-03-25,2.6612,2.6612,2.6612,2.6612,0,0
2010-03-26,2.6896,2.7559,2.6896,2.6896,0,0
2010-03-29,2.6707,2.9453,2.6707,2.8222,0,0
2010-03-30,2.9264,2.9833,2.8601,2.9453,0,0
2010-03-31,2.9453,2.9833,2.9359,2.9453,0,0
2010-04-01,2.9453,2.9833,2.9074,2.9833,0,0
2010-04-06,2.8791,2.9643,2.8791,2.9453,0,0
2010-04-07,2.8695,2.9548,2.8695,2.9453,0,0
2010-04-08,2.9737,2.9737,2.917,2.9453,0,0
2010-04-09,2.9453,2.9453,2.9453,2.9453,0,0
2010-04-12,2.9548,2.9548,2.8601,2.8601,0,0
2010-04-13,2.7938,2.8316,2.7465,2.8316,0,0
2010-04-14,2.7654,2.898,2.7654,2.8885,0,0
2010-04-15,2.9453,2.9453,2.8128,2.8128,0,0
2010-04-16,2.7654,2.7654,2.7654,2.7654,0,0
2010-04-19,2.7181,2.7181,2.6423,2.6423,0,0
2010-04-20,2.6518,2.7181,2.6518,2.7181,0,0
2010-04-21,2.6612,2.737,2.6328,2.6423,0,0
2010-04-22,2.6233,2.6518,2.6233,2.6518,0,0
2010-04-23,2.6518,2.7938,2.6518,2.7938,0,0
2010-04-26,2.7938,2.7938,2.7086,2.7654,0,0
2010-04-27,2.737,2.737,2.6423,2.6991,0,0
2010-04-28,2.6044,2.614,2.6044,2.6044,0,0
2010-04-29,2.7938,2.7938,2.5286,2.5761,0,0
2010-04-30,2.5761,2.5854,2.5286,2.5286,0,0
2010-05-04,2.5381,2.5381,2.4813,2.4813,0,0
2010-05-05,2.5002,2.5949,2.5002,2.5286,0,0
2010-05-06,2.5286,2.5949,2.5286,2.5949,0,0
2010-05-07,2.5286,2.5286,2.5097,2.5191,0,0
2010-05-10,2.5949,2.6328,2.5286,2.5286,0,0
2010-05-11,2.5286,2.557,2.5286,2.557,0,0
2010-05-12,2.557,2.557,2.5286,2.5286,0,0
2010-05-13,2.614,2.614,2.3676,2.3676,0,0
2010-05-14,2.3676,2.3676,2.2634,2.3013,0,0
2010-05-17,2.3108,2.3108,2.2825,2.2825,0,0
2010-05-18,2.3487,2.3487,2.2825,2.3487,0,0
2010-05-19,2.2919,2.3487,2.2729,2.3487,0,0
2010-05-20,2.3582,2.3582,2.254,2.254,0,0
2010-05-21,2.2162,2.2162,2.112,2.2162,0,0
2010-05-24,2.1783,2.1783,2.1213,2.1213,0,0
2010-05-25,2.112,2.1309,2.055,2.055,0,0
2010-05-26,2.1877,2.1877,2.1025,2.1025,0,0
2010-05-27,2.1404,2.1404,2.0457,2.0457,0,0
2010-05-28,2.1025,2.1877,2.1025,2.1592,0,0
2010-05-31,2.1592,2.1592,2.1592,2.1592,0,0
2010-06-01,2.2162,2.2634,2.1592,2.1592,0,0
2010-06-02,2.2162,2.2162,2.1592,2.1592,0,0
2010-06-04,2.1688,2.235,2.1688,2.235,0,0
2010-06-07,2.2446,2.2825,2.2446,2.254,0,0
2010-06-08,2.254,2.254,2.254,2.254,0,0
2010-06-09,2.2919,2.2919,2.2255,2.2255,0,0
2010-06-10,2.1783,2.235,2.1592,2.235,0,0
2010-06-11,2.235,2.235,2.235,2.235,0,0
2010-06-14,2.1783,2.1783,2.1592,2.1592,0,0
2010-06-15,2.1592,2.1783,2.1592,2.1783,0,0
2010-06-16,2.2162,2.2825,2.1592,2.1592,0,0
2010-06-17,2.1592,2.1688,2.1592,2.1688,0,0
2010-06-18,2.1592,2.1592,2.1592,2.1592,0,0
2010-06-21,2.1592,2.1592,2.1592,2.1592,0,0
2010-06-22,2.1592,2.1592,2.1592,2.1592,0,0
2010-06-23,2.235,2.235,2.1592,2.1592,0,0
2010-06-24,2.1592,2.1592,2.1592,2.1592,0,0
2010-06-25,2.2067,2.235,2.1592,2.235,0,0
2010-06-28,2.1783,2.1783,2.1592,2.1592,0,0
2010-06-29,2.1592,2.1592,2.1592,2.1592,0,0
2010-06-30,2.1592,2.1592,2.1592,2.1592,0,0
2010-07-02,2.1592,2.2067,2.1592,2.2067,0,0
2010-07-05,2.2067,2.2067,2.2067,2.2067,0,0
2010-07-06,2.2067,2.3108,2.2067,2.2446,0,0
2010-07-07,2.2446,2.3108,2.2446,2.3108,0,0
2010-07-08,2.3108,2.3108,2.2825,2.2919,0,0
2010-07-09,2.3865,2.5191,2.3865,2.4434,0,0
2010-07-12,2.5476,2.5476,2.4813,2.5381,0,0
2010-07-13,2.5476,2.5761,2.5381,2.5761,0,0
2010-07-14,2.5854,2.5854,2.5476,2.5854,0,0
2010-07-15,2.5854,2.6044,2.5854,2.6044,0,0
2010-07-16,2.6044,2.614,2.6044,2.6044,0,0
2010-07-19,2.6044,2.6233,2.5854,2.614,0,0
2010-07-20,2.614,2.614,2.5761,2.5761,0,0
2010-07-21,2.557,2.557,2.5476,2.5476,0,0
2010-07-22,2.5476,2.5476,2.4528,2.5381,0,0
2010-07-23,2.5476,2.557,2.5381,2.5476,0,0
2010-07-26,2.6233,2.6233,2.5761,2.5761,0,0
2010-07-27,2.6044,2.6044,2.6044,2.6044,0,0
2010-07-28,2.6233,2.6233,2.6044,2.6233,0,0
2010-07-29,2.6328,2.6423,2.614,2.6328,0,0
2010-07-30,2.6044,2.6423,2.6044,2.6328,0,0
2010-08-02,2.6044,2.6328,2.5854,2.6328,0,0
2010-08-03,2.6328,2.6518,2.6328,2.6518,0,0
2010-08-04,2.6518,2.6612,2.6518,2.6612,0,0
2010-08-05,2.6707,2.6707,2.6423,2.6707,0,0
2010-08-06,2.6612,2.6612,2.6423,2.6612,0,0
2010-08-09,2.6518,2.6518,2.614,2.614,0,0
2010-08-10,2.6423,2.6423,2.614,2.6423,0,0
2010-08-11,2.6328,2.6328,2.6044,2.6233,0,0
2010-08-12,2.6233,2.6233,2.6044,2.6044,0,0
2010-08-13,2.6233,2.6233,2.5381,2.557,0,0
2010-08-16,2.557,2.557,2.5381,2.5381,0,0
2010-08-17,2.5097,2.5286,2.4719,2.5286,0,0
2010-08-18,2.5286,2.5286,2.5286,2.5286,0,0
2010-08-19,2.6044,2.6044,2.6044,2.6044,0,0
2010-08-20,2.6423,2.6423,2.5665,2.5665,0,0
2010-08-23,2.5381,2.5381,2.5002,2.5002,0,0
2010-08-24,2.5097,2.5097,2.4055,2.4055,0,0
2010-08-25,2.3961,2.3961,2.3961,2.3961,0,0
2010-08-26,2.3865,2.434,2.3865,2.434,0,0
2010-08-27,2.434,2.5191,2.434,2.5191,0,0
2010-08-30,2.5381,2.5381,2.4719,2.5381,0,0
2010-08-31,2.5002,2.5949,2.434,2.5949,0,0
2010-09-01,2.5761,2.5761,2.4719,2.5761,0,0
2010-09-02,2.5761,2.5761,2.5002,2.5665,0,0
2010-09-03,2.5761,2.5761,2.415,2.415,0,0
2010-09-06,2.4434,2.4434,2.434,2.434,0,0
2010-09-07,2.4244,2.4244,2.3582,2.3582,0,0
2010-09-08,2.3392,2.4055,2.3392,2.4055,0,0
2010-09-09,2.3392,2.3961,2.3298,2.3865,0,0
2010-09-10,2.3865,2.3865,2.3203,2.3203,0,0
2010-09-13,2.3203,2.3203,2.3108,2.3203,0,0
2010-09-14,2.3108,2.3108,2.2634,2.2634,0,0
2010-09-15,2.235,2.2634,2.235,2.235,0,0
2010-09-16,2.235,2.3108,2.235,2.3108,0,0
2010-09-17,2.3298,2.3298,2.3203,2.3203,0,0
2010-09-20,2.3108,2.3487,2.254,2.3487,0,0
2010-09-21,2.3582,2.3865,2.3203,2.3676,0,0
2010-09-22,2.3865,2.3865,2.254,2.3771,0,0
2010-09-23,2.3582,2.3582,2.254,2.3392,0,0
2010-09-24,2.3676,2.3676,2.2634,2.3676,0,0
2010-09-27,2.3676,2.3676,2.2634,2.3298,0,0
2010-09-28,2.3582,2.3582,2.2634,2.3298,0,0
2010-09-29,2.3298,2.3298,2.2634,2.3108,0,0
2010-09-30,2.2634,2.3582,2.2634,2.3582,0,0
2010-10-01,2.3865,2.3865,2.2634,2.3392,0,0
2010-10-04,2.3582,2.3582,2.254,2.3013,0,0
2010-10-05,2.3108,2.3108,2.2634,2.3108,0,0
2010-10-06,2.3108,2.415,2.2634,2.3676,0,0
2010-10-07,2.3961,2.3961,2.3865,2.3865,0,0
2010-10-08,2.3676,2.3961,2.3582,2.3961,0,0
2010-10-11,2.4244,2.4244,2.3392,2.3961,0,0
2010-10-12,2.3961,2.3961,2.2634,2.3108,0,0
2010-10-13,2.2634,2.3298,2.2634,2.3108,0,0
2010-10-14,2.3392,2.3392,2.2634,2.3108,0,0
2010-10-15,2.3108,2.3108,2.3108,2.3108,0,0
2010-10-18,2.3108,2.3108,2.2634,2.3013,0,0
2010-10-19,2.3013,2.3013,2.2634,2.3013,0,0
2010-10-20,2.3013,2.3013,2.2634,2.2634,0,0
2010-10-21,2.2634,2.3013,2.235,2.2919,0,0
2010-10-22,2.2919,2.2919,2.2634,2.2919,0,0
2010-10-25,2.2919,2.2919,2.235,2.235,0,0
2010-10-26,2.2634,2.2634,2.235,2.254,0,0
2010-10-27,2.2634,2.2634,2.235,2.2634,0,0
2010-10-28,2.2825,2.2825,2.2446,2.2825,0,0
2010-10-29,2.2825,2.2825,2.235,2.2825,0,0
2010-11-02,2.2825,2.3203,2.2825,2.2919,0,0
2010-11-03,2.3298,2.3961,2.3298,2.3961,0,0
2010-11-04,2.4244,2.4528,2.4055,2.4528,0,0
2010-11-05,2.4528,2.4528,2.3961,2.4244,0,0
2010-11-08,2.4244,2.4434,2.3392,2.3392,0,0
2010-11-09,2.4055,2.5286,2.4055,2.4907,0,0
2010-11-10,2.6518,2.6612,2.6044,2.6233,0,0
2010-11-12,2.614,2.6233,2.3865,2.3865,0,0
2010-11-15,2.3865,2.3865,2.3771,2.3771,0,0
2010-11-16,2.3771,2.3771,2.3487,2.3582,0,0
2010-11-17,2.3392,2.3487,2.3298,2.3392,0,0
2010-11-18,2.3298,2.3582,2.3108,2.3487,0,0
2010-11-19,2.3487,2.3487,2.3298,2.3298,0,0
2010-11-22,2.3392,2.3582,2.3203,2.3203,0,0
2010-11-23,2.3203,2.3203,2.2255,2.2825,0,0
2010-11-24,2.3487,2.3771,2.3487,2.3582,0,0
2010-11-25,2.4055,2.4055,2.3487,2.3487,0,0
2010-11-26,2.3582,2.3582,2.3392,2.3582,0,0
2010-11-29,2.3865,2.4055,2.3487,2.3487,0,0
2010-11-30,2.3487,2.3487,2.2919,2.3487,0,0
2010-12-01,2.3487,2.3487,2.2446,2.3108,0,0
2010-12-02,2.3392,2.3392,2.3108,2.3298,0,0
2010-12-03,2.3298,2.3487,2.3298,2.3487,0,0
2010-12-06,2.3487,2.3676,2.3298,2.3298,0,0
2010-12-07,2.3582,2.3582,2.3392,2.3392,0,0
2010-12-08,2.3487,2.3487,2.3108,2.3108,0,0
2010-12-09,2.3298,2.3298,2.3013,2.3108,0,0
2010-12-10,2.3013,2.3013,2.254,2.2729,0,0
2010-12-13,2.2825,2.2825,2.2729,2.2729,0,0
2010-12-14,2.2919,2.3487,2.2634,2.3487,0,0
2010-12-15,2.3676,2.3676,2.3013,2.3013,0,0
2010-12-16,2.3013,2.3298,2.2919,2.3298,0,0
2010-12-17,2.3298,2.3298,2.2919,2.3013,0,0
2010-12-20,2.3013,2.3203,2.2825,2.3203,0,0
2010-12-21,2.3203,2.3203,2.2919,2.3013,0,0
2010-12-22,2.3108,2.3108,2.2825,2.3108,0,0
2010-12-23,2.3108,2.3108,2.2729,2.2825,0,0
2010-12-27,2.3108,2.3108,2.2634,2.2919,0,0
2010-12-28,2.2634,2.3108,2.2634,2.3108,0,0
2010-12-29,2.3108,2.3108,2.2825,2.3108,0,0
2010-12-30,2.3108,2.3676,2.3108,2.3676,0,0
2010-12-31,2.3676,2.4055,2.3676,2.4055,0,0
2011-01-03,2.4055,2.4055,2.3203,2.3865,0,0
2011-01-04,2.3865,2.3865,2.3487,2.3676,0,0
2011-01-05,2.3676,2.3865,2.3298,2.3865,0,0
2011-01-07,2.3676,2.3865,2.3676,2.3771,0,0
2011-01-10,2.4055,2.4055,2.3582,2.3582,0,0
2011-01-11,2.3487,2.3487,2.3298,2.3487,0,0
2011-01-12,2.3392,2.3487,2.3392,2.3487,0,0
2011-01-13,2.3487,2.3582,2.3298,2.3298,0,0
2011-01-14,2.3298,2.3392,2.254,2.254,0,0
2011-01-17,2.254,2.2825,2.254,2.2634,0,0
2011-01-18,2.3013,2.3013,2.254,2.254,0,0
2011-01-19,2.2634,2.2634,2.1499,2.2162,0,0
2011-01-20,2.2162,2.235,2.2162,2.2255,0,0
2011-01-21,2.2162,2.2634,2.2162,2.254,0,0
2011-01-24,2.2634,2.2634,2.2255,2.2255,0,0
2011-01-25,2.2255,2.254,2.2162,2.2162,0,0
2011-01-26,2.2162,2.2162,2.2162,2.2162,0,0
2011-01-27,2.1971,2.254,2.1971,2.2255,0,0
2011-01-28,2.2446,2.2446,2.2446,2.2446,0,0
2011-01-31,2.1213,2.235,2.1213,2.2255,0,0
2011-02-01,2.235,2.235,2.1783,2.2255,0,0
2011-02-02,2.2255,2.2634,2.2067,2.2255,0,0
2011-02-03,2.2067,2.254,2.2067,2.2162,0,0
2011-02-04,2.2162,2.2162,2.2162,2.2162,0,0
2011-02-07,2.2255,2.3392,2.2162,2.3392,0,0
2011-02-08,2.3487,2.3487,2.3298,2.3298,0,0
2011-02-09,2.3298,2.3298,2.2446,2.2919,0,0
2011-02-10,2.2919,2.3298,2.254,2.3298,0,0
2011-02-11,2.2729,2.3203,2.235,2.3203,0,0
2011-02-14,2.3298,2.3298,2.2446,2.3013,0,0
2011-02-15,2.3298,2.3298,2.2729,2.2729,0,0
2011-02-16,2.2634,2.2729,2.2446,2.2446,0,0
2011-02-17,2.2255,2.2446,2.2255,2.2446,0,0
2011-02-18,2.235,2.2446,2.2255,2.2446,0,0
2011-02-21,2.235,2.2446,2.235,2.2446,0,0
2011-02-22,2.2446,2.2446,2.2446,2.2446,0,0
2011-02-23,2.2446,2.2919,2.2446,2.2729,0,0
2011-02-24,2.2919,2.3203,2.2919,2.3013,0,0
2011-02-25,2.3013,2.3013,2.2919,2.3013,0,0
2011-02-28,2.3013,2.3013,2.2729,2.3013,0,0
2011-03-01,2.3013,2.3013,2.2634,2.2825,0,0
2011-03-02,2.3013,2.3298,2.2729,2.3298,0,0
2011-03-03,2.3298,2.3487,2.2825,2.3487,0,0
2011-03-04,2.3392,2.3771,2.3392,2.3771,0,0
2011-03-07,2.3771,2.4055,2.3676,2.3865,0,0
2011-03-08,2.415,2.4244,2.3865,2.4055,0,0
2011-03-09,2.4055,2.415,2.3865,2.4055,0,0
2011-03-10,2.4055,2.4055,2.3676,2.3676,0,0
2011-03-11,2.3582,2.3676,2.3108,2.3108,0,0
2011-03-14,2.3013,2.3487,2.3013,2.3487,0,0
2011-03-15,2.3013,2.3865,2.3013,2.3865,0,0
2011-03-16,2.3961,2.3961,2.3865,2.3865,0,0
2011-03-17,2.4055,2.4055,2.3865,2.3865,0,0
2011-03-18,2.4055,2.4055,2.3676,2.3676,0,0
2011-03-21,2.3487,2.3676,2.3487,2.3676,0,0
2011-03-22,2.3865,2.434,2.3676,2.415,0,0
2011-03-23,2.415,2.415,2.2634,2.2634,0,0
2011-03-24,2.2729,2.2729,2.235,2.235,0,0
2011-03-25,2.235,2.2446,2.1971,2.2446,0,0
2011-03-28,2.2446,2.254,2.235,2.235,0,0
2011-03-29,2.2446,2.254,2.2067,2.2446,0,0
2011-03-30,2.254,2.254,2.2446,2.2446,0,0
2011-03-31,2.2446,2.2446,2.2067,2.2255,0,0
2011-04-01,2.2446,2.2446,2.2067,2.235,0,0
2011-04-04,2.235,2.235,2.1404,2.1971,0,0
2011-04-05,2.1404,2.1971,2.1404,2.1688,0,0
2011-04-06,2.1499,2.1783,2.1309,2.1499,0,0
2011-04-07,2.1971,2.1971,2.1499,2.1783,0,0
2011-04-08,2.1688,2.1877,2.1499,2.1783,0,0
2011-04-11,2.1499,2.1783,2.1404,2.1404,0,0
2011-04-12,2.1404,2.1404,2.1025,2.1309,0,0
2011-04-13,2.1309,2.1688,2.1025,2.112,0,0
2011-04-14,2.1309,2.1309,2.1025,2.1213,0,0
2011-04-15,2.1499,2.1499,2.1025,2.1025,0,0
2011-04-18,2.1025,2.1213,2.0457,2.1213,0,0
2011-04-19,2.112,2.1309,2.112,2.1309,0,0
2011-04-20,2.1309,2.1309,2.112,2.1213,0,0
2011-04-21,2.1404,2.1404,2.0835,2.0835,0,0
2011-04-26,2.0835,2.0835,2.0362,2.055,0,0
2011-04-27,2.0646,2.0646,2.055,2.0646,0,0
2011-04-28,2.0646,2.0646,2.0172,2.0172,0,0
2011-04-29,2.0267,2.0267,1.9604,2.0172,0,0
2011-05-02,2.0646,2.0646,2.0172,2.0172,0,0
2011-05-04,2.0267,2.0267,2.0078,2.0078,0,0
2011-05-05,2.0172,2.0172,1.9888,1.9888,0,0
2011-05-06,1.9888,1.9888,1.9604,1.9604,0,0
2011-05-09,1.9604,1.9604,1.9225,1.9604,0,0
2011-05-10,1.9604,1.9604,1.8847,1.9414,0,0
2011-05-11,1.932,1.9414,1.932,1.932,0,0
2011-05-12,1.932,1.9604,1.932,1.932,0,0
2011-05-13,1.9414,1.9414,1.752,1.752,0,0
2011-05-16,1.6573,1.752,1.6384,1.6573,0,0
2011-05-17,1.6668,1.6668,1.6289,1.6384,0,0
2011-05-18,1.6668,1.6668,1.6289,1.6289,0,0
2011-05-19,1.6479,1.6479,1.5817,1.5817,0,0
2011-05-20,1.5626,1.6005,1.5626,1.591,0,0
2011-05-23,1.591,1.61,1.591,1.6005,0,0
2011-05-24,1.6005,1.6005,1.591,1.6005,0,0
2011-05-25,1.6005,1.6005,1.6005,1.6005,0,0
2011-05-26,1.61,1.61,1.591,1.591,0,0
2011-05-27,1.591,1.61,1.591,1.61,0,0
2011-05-30,1.61,1.6479,1.6005,1.6005,0,0
2011-05-31,1.61,1.61,1.6005,1.6005,0,0
2011-06-01,1.61,1.61,1.6005,1.6005,0,0
2011-06-02,1.61,1.61,1.61,1.61,0,0
2011-06-03,1.61,1.6194,1.61,1.61,0,0
2011-06-06,1.61,1.6479,1.61,1.6479,0,0
2011-06-07,1.6479,1.6479,1.61,1.6479,0,0
2011-06-08,1.6479,1.6952,1.6479,1.6668,0,0
2011-06-09,1.6668,1.6952,1.6668,1.6952,0,0
2011-06-10,1.7047,1.7047,1.6573,1.7047,0,0
2011-06-13,1.7047,1.7142,1.6857,1.6952,0,0
2011-06-14,1.7047,1.7047,1.6763,1.7047,0,0
2011-06-15,1.7047,1.7047,1.6573,1.6668,0,0
2011-06-16,1.6668,1.6668,1.6194,1.6289,0,0
2011-06-17,1.6384,1.6384,1.6194,1.6194,0,0
2011-06-20,1.6194,1.6194,1.591,1.591,0,0
2011-06-21,1.591,1.591,1.4584,1.5438,0,0
2011-06-22,1.5438,1.5438,1.4584,1.4868,0,0
2011-06-24,1.468,1.468,1.3448,1.3732,0,0
2011-06-27,1.3732,1.3732,1.269,1.269,0,0
2011-06-28,1.3069,1.3353,1.2596,1.2786,0,0
2011-06-29,1.2786,1.2975,1.2786,1.288,0,0
2011-06-30,1.3069,1.3732,1.3069,1.3069,0,0
2011-07-01,1.3165,1.3543,1.2975,1.2975,0,0
2011-07-04,1.3069,1.3069,1.2596,1.2596,0,0
2011-07-05,1.269,1.269,1.2217,1.2406,0,0
2011-07-06,1.2406,1.2406,1.2123,1.2311,0,0
2011-07-07,1.2217,1.2311,1.2217,1.2217,0,0
2011-07-08,1.2217,1.2217,1.2123,1.2217,0,0
2011-07-11,1.2217,1.2217,1.2027,1.2027,0,0
2011-07-12,1.2027,1.2027,1.1932,1.1932,0,0
2011-07-13,1.2027,1.2217,1.1932,1.1932,0,0
2011-07-14,1.1554,1.1839,1.1554,1.1554,0,0
2011-07-15,1.146,1.146,1.1269,1.1269,0,0
2011-07-18,1.1081,1.1176,1.0702,1.0986,0,0
2011-07-19,1.0986,1.0986,1.0418,1.0511,0,0
2011-07-20,1.0228,1.0511,1.0039,1.0511,0,0
2011-07-21,1.0607,1.0607,1.0039,1.0511,0,0
2011-07-22,1.0511,1.0511,1.0418,1.0418,0,0
2011-07-25,1.0418,1.0607,1.0418,1.0607,0,0
2011-07-26,1.0511,1.0511,1.0418,1.0511,0,0
2011-07-27,1.0511,1.0511,1.0228,1.0228,0,0
2011-07-28,1.0228,1.0511,1.0039,1.0511,0,0
2011-07-29,1.0418,1.0418,1.0134,1.0418,0,0
2011-08-01,1.0418,1.1365,1.0418,1.0797,0,0
2011-08-02,1.0797,1.1081,1.0797,1.0797,0,0
2011-08-03,1.0702,1.0797,1.0418,1.0511,0,0
2011-08-04,1.0511,1.0511,0.9565,0.9565,0,0
2011-08-05,0.9186,0.9565,0.8902,0.9092,0,0
2011-08-08,0.8429,0.8714,0.8429,0.8429,0,0
2011-08-09,0.8429,0.8714,0.8145,0.8429,0,0
2011-08-10,0.8523,0.8997,0.8523,0.8808,0,0
2011-08-11,0.8714,0.9281,0.8714,0.8902,0,0
2011-08-12,0.9281,0.9565,0.8902,0.9565,0,0
2011-08-16,1.0511,1.0511,1.0134,1.0228,0,0
2011-08-17,1.0228,1.0323,1.0228,1.0228,0,0
2011-08-18,1.0228,1.0228,0.9186,0.9186,0,0
2011-08-19,0.9186,0.9186,0.8714,0.9186,0,0
2011-08-22,0.9376,0.9565,0.9376,0.9376,0,0
2011-08-23,0.966,0.966,0.9186,0.9376,0,0
2011-08-24,0.9471,0.9471,0.9092,0.9281,0,0
2011-08-25,0.9281,0.9281,0.9092,0.9281,0,0
2011-08-26,0.9281,0.9281,0.9281,0.9281,0,0
2011-08-29,0.9376,0.9376,0.9376,0.9376,0,0
2011-08-30,0.9565,0.9565,0.9376,0.9376,0,0
2011-08-31,0.9565,0.9565,0.9281,0.9281,0,0
2011-09-01,0.9186,0.9471,0.9092,0.9471,0,0
2011-09-02,0.9471,0.9471,0.8997,0.9092,0,0
2011-09-05,0.8618,0.9092,0.8334,0.8429,0,0
2011-09-06,0.8239,0.8334,0.8145,0.8334,0,0
2011-09-07,0.8145,0.8429,0.8145,0.8334,0,0
2011-09-08,0.8334,0.8714,0.8334,0.8523,0,0
2011-09-09,0.8523,0.8714,0.8523,0.8714,0,0
2011-09-12,0.8523,0.8523,0.8239,0.8239,0,0
2011-09-13,0.8239,0.8239,0.805,0.8145,0,0
2011-09-14,0.8145,0.8145,0.805,0.805,0,0
2011-09-15,0.805,0.805,0.7671,0.786,0,0
2011-09-16,0.786,0.786,0.7387,0.7482,0,0
2011-09-19,0.7576,0.7576,0.7482,0.7482,0,0
2011-09-20,0.7482,0.7482,0.7482,0.7482,0,0
2011-09-21,0.7482,0.7482,0.7387,0.7387,0,0
2011-09-22,0.7293,0.7293,0.7103,0.7103,0,0
2011-09-23,0.7008,0.7103,0.6914,0.7008,0,0
2011-09-26,0.6819,0.6914,0.625,0.6819,0,0
2011-09-27,0.6819,0.6819,0.6535,0.6724,0,0
2011-09-28,0.6724,0.6724,0.6629,0.6724,0,0
2011-09-29,0.6724,0.6724,0.6535,0.6629,0,0
2011-09-30,0.6629,0.6629,0.644,0.6535,0,0
2011-10-03,0.6535,0.6535,0.6157,0.6157,0,0
2011-10-04,0.6157,0.6157,0.6061,0.6157,0,0
2011-10-05,0.6157,0.6345,0.6157,0.625,0,0
2011-10-06,0.6345,0.6345,0.6157,0.6345,0,0
2011-10-07,0.6535,0.6535,0.6345,0.6345,0,0
2011-10-10,0.644,0.644,0.6345,0.6345,0,0
2011-10-11,0.6345,0.644,0.625,0.6345,0,0
2011-10-12,0.644,0.6535,0.625,0.6345,0,0
2011-10-13,0.6345,0.6535,0.6345,0.6345,0,0
2011-10-14,0.6535,0.7008,0.6535,0.7008,0,0
2011-10-17,0.7197,0.8618,0.7197,0.7576,0,0
2011-10-18,0.7576,0.7576,0.7008,0.7103,0,0
2011-10-19,0.7103,0.7293,0.6914,0.7008,0,0
2011-10-20,0.6914,0.7008,0.6724,0.6914,0,0
2011-10-21,0.6914,0.7197,0.6629,0.7197,0,0
2011-10-24,0.7293,0.7482,0.7197,0.7482,0,0
2011-10-25,0.7482,0.7482,0.7103,0.7103,0,0
2011-10-26,0.7197,0.7197,0.7008,0.7008,0,0
2011-10-27,0.7008,0.7671,0.7008,0.7576,0,0
2011-10-28,0.7955,0.7955,0.7576,0.7576,0,0
2011-10-31,0.7671,0.7671,0.7387,0.7482,0,0
2011-11-02,0.7197,0.7293,0.6914,0.7197,0,0
2011-11-03,0.7103,0.7482,0.7103,0.7482,0,0
2011-11-04,0.7671,0.7671,0.7293,0.7576,0,0
2011-11-07,0.7576,0.7671,0.7482,0.7482,0,0
2011-11-08,0.7482,0.7576,0.7387,0.7482,0,0
2011-11-09,0.7482,0.7482,0.7293,0.7293,0,0
2011-11-10,0.7103,0.7197,0.7103,0.7197,0,0
2011-11-14,0.7293,0.7293,0.7197,0.7197,0,0
2011-11-15,0.6914,0.6914,0.6629,0.6819,0,0
2011-11-16,0.6724,0.6819,0.6629,0.6819,0,0
2011-11-17,0.6819,0.6819,0.6629,0.6819,0,0
2011-11-18,0.6914,0.6914,0.644,0.644,0,0
2011-11-21,0.6345,0.6345,0.6061,0.6061,0,0
2011-11-22,0.6061,0.6157,0.5682,0.5682,0,0
2011-11-23,0.5587,0.5872,0.5115,0.5587,0,0
2011-11-24,0.5587,0.5587,0.5494,0.5494,0,0
2011-11-25,0.5587,0.5587,0.5494,0.5494,0,0
2011-11-28,0.5494,0.5494,0.502,0.5303,0,0
2011-11-29,0.5208,0.5494,0.5208,0.5494,0,0
2011-11-30,0.5494,0.5587,0.5303,0.5587,0,0
2011-12-01,0.5587,0.5778,0.5208,0.5494,0,0
2011-12-02,0.5494,0.5494,0.5303,0.5399,0,0
2011-12-05,0.5399,0.5399,0.5208,0.5208,0,0
2011-12-06,0.5208,0.5399,0.5208,0.5399,0,0
2011-12-07,0.5399,0.5399,0.502,0.5208,0,0
2011-12-08,0.5303,0.5303,0.502,0.502,0,0
2011-12-09,0.5115,0.5115,0.47353,0.5115,0,0
2011-12-12,0.502,0.5208,0.502,0.5208,0,0
2011-12-13,0.5208,0.5399,0.5208,0.5399,0,0
2011-12-14,0.5399,0.5494,0.5303,0.5399,0,0
2011-12-15,0.5399,0.5399,0.5303,0.5399,0,0
2011-12-16,0.5399,0.5494,0.5303,0.5399,0,0
2011-12-19,0.5399,0.5494,0.5399,0.5399,0,0
2011-12-20,0.5399,0.5399,0.5399,0.5399,0,0
2011-12-21,0.5587,0.5587,0.5494,0.5494,0,0
2011-12-22,0.5587,0.5587,0.5494,0.5587,0,0
2011-12-23,0.5587,0.5587,0.5587,0.5587,0,0
2011-12-27,0.5587,0.5587,0.5494,0.5494,0,0
2011-12-28,0.5494,0.5494,0.5494,0.5494,0,0
2011-12-29,0.5494,0.5494,0.5399,0.5494,0,0
2011-12-30,0.5494,0.5494,0.5494,0.5494,0,0
2012-01-02,0.5494,0.5494,0.5494,0.5494,0,0
2012-01-03,0.5494,0.5494,0.5399,0.5494,0,0
2012-01-04,0.5494,0.5494,0.5303,0.5303,0,0
2012-01-05,0.5399,0.5494,0.5303,0.5399,0,0
2012-01-09,0.5494,0.5494,0.5399,0.5494,0,0
2012-01-10,0.5494,0.5587,0.5494,0.5587,0,0
2012-01-11,0.5587,0.6061,0.5587,0.6061,0,0
2012-01-12,0.5966,0.6535,0.5966,0.6345,0,0
2012-01-13,0.6345,0.6535,0.625,0.625,0,0
2012-01-16,0.625,0.6345,0.625,0.6345,0,0
2012-01-17,0.6345,0.6914,0.6345,0.6914,0,0
2012-01-18,0.7293,0.7387,0.7197,0.7293,0,0
2012-01-19,0.7293,0.7482,0.7293,0.7293,0,0
2012-01-20,0.7293,0.7387,0.7103,0.7103,0,0
2012-01-23,0.7103,0.7103,0.6724,0.7103,0,0
2012-01-24,0.7008,0.7671,0.7008,0.7671,0,0
2012-01-25,0.7671,0.8239,0.7671,0.8239,0,0
2012-01-26,0.8523,0.8714,0.8523,0.8618,0,0
2012-01-27,0.8618,0.8902,0.8618,0.8902,0,0
2012-01-30,0.8808,0.8997,0.8808,0.8997,0,0
2012-01-31,0.8997,0.9186,0.8902,0.9092,0,0
2012-02-01,0.9092,0.9092,0.8714,0.9092,0,0
2012-02-02,0.8997,0.9092,0.8997,0.9092,0,0
2012-02-03,0.9092,0.9186,0.8902,0.9092,0,0
2012-02-06,0.8902,0.9186,0.8902,0.9092,0,0
2012-02-07,0.9092,0.9186,0.8902,0.8997,0,0
2012-02-08,0.9092,0.9186,0.9092,0.9186,0,0
2012-02-09,0.9186,0.9186,0.8902,0.9092,0,0
2012-02-10,0.9092,0.9092,0.8808,0.8997,0,0
2012-02-13,0.8997,0.966,0.8997,0.966,0,0
2012-02-14,1.0039,1.0039,0.9376,0.9471,0,0
2012-02-15,0.9471,1.0134,0.9471,1.0134,0,0
2012-02-16,1.0134,1.0134,0.9849,1.0039,0,0
2012-02-17,1.0134,1.089,1.0134,1.0228,0,0
2012-02-20,1.0702,1.1081,1.0607,1.0986,0,0
2012-02-21,1.1081,1.1176,1.0323,1.0323,0,0
2012-02-22,1.0228,1.0228,0.9755,1.0039,0,0
2012-02-23,0.9849,1.0418,0.9849,1.0228,0,0
2012-02-24,1.0228,1.0418,1.0039,1.0039,0,0
2012-02-27,1.0134,1.0134,0.9944,1.0039,0,0
2012-02-28,1.0039,1.0039,0.9849,0.9849,0,0
2012-02-29,0.9471,0.9471,0.8902,0.8902,0,0
2012-03-01,0.8618,0.9471,0.8618,0.9376,0,0
2012-03-02,0.9186,0.9376,0.9186,0.9376,0,0
2012-03-05,0.9281,0.9471,0.9186,0.9281,0,0
2012-03-06,0.9281,0.9281,0.8902,0.8902,0,0
2012-03-07,0.8997,0.9092,0.8808,0.9092,0,0
2012-03-08,0.9092,0.9376,0.9092,0.9376,0,0
2012-03-09,0.9376,0.9376,0.9186,0.9281,0,0
2012-03-12,0.9281,0.9281,0.8902,0.8997,0,0
2012-03-13,0.9092,0.9092,0.8902,0.8997,0,0
2012-03-14,0.8997,0.9186,0.8997,0.8997,0,0
2012-03-15,0.8997,0.9092,0.8997,0.8997,0,0
2012-03-16,0.8902,0.8902,0.8429,0.8429,0,0
2012-03-19,0.8618,0.8714,0.8429,0.8714,0,0
2012-03-20,0.8523,0.8714,0.8523,0.8714,0,0
2012-03-21,0.8523,0.8523,0.8145,0.8239,0,0
2012-03-22,0.8334,0.8334,0.786,0.786,0,0
2012-03-23,0.7671,0.8145,0.7671,0.805,0,0
2012-03-26,0.805,0.805,0.7766,0.7955,0,0
2012-03-27,0.7955,0.8145,0.7955,0.8145,0,0
2012-03-28,0.8145,0.8429,0.8145,0.8429,0,0
2012-03-29,0.8334,0.8523,0.8334,0.8523,0,0
2012-03-30,0.8618,0.8618,0.8239,0.8523,0,0
2012-04-02,0.8523,0.8523,0.8429,0.8523,0,0
2012-04-03,0.8523,0.8523,0.8334,0.8334,0,0
2012-04-04,0.8334,0.8334,0.786,0.786,0,0
2012-04-05,0.7671,0.805,0.7671,0.786,0,0
2012-04-10,0.7671,0.786,0.7293,0.7387,0,0
2012-04-11,0.7103,0.7387,0.7103,0.7387,0,0
2012-04-12,0.7387,0.7387,0.7293,0.7387,0,0
2012-04-13,0.7387,0.7482,0.7293,0.7293,0,0
2012-04-16,0.7482,0.7576,0.7482,0.7576,0,0
2012-04-17,0.7482,0.7671,0.7482,0.7482,0,0
2012-04-18,0.7482,0.786,0.7482,0.7766,0,0
2012-04-19,0.786,0.8145,0.7766,0.7955,0,0
2012-04-20,0.8145,0.8145,0.786,0.805,0,0
2012-04-23,0.7955,0.7955,0.7197,0.7482,0,0
2012-04-24,0.6819,0.7955,0.6819,0.7955,0,0
2012-04-25,0.7576,0.7576,0.7293,0.7293,0,0
2012-04-26,0.7293,0.7293,0.6819,0.6914,0,0
2012-04-27,0.6819,0.7293,0.6819,0.7293,0,0
2012-04-30,0.7293,0.7482,0.7293,0.7482,0,0
2012-05-02,0.7482,0.7576,0.7387,0.7482,0,0
2012-05-04,0.7482,0.7576,0.7482,0.7576,0,0
2012-05-07,0.7482,0.7482,0.7103,0.7293,0,0
2012-05-08,0.7387,0.7387,0.7197,0.7197,0,0
2012-05-09,0.7197,0.7197,0.7103,0.7103,0,0
2012-05-10,0.7103,0.7103,0.6914,0.7103,0,0
2012-05-11,0.6914,0.7103,0.6914,0.6914,0,0
2012-05-14,0.6914,0.6914,0.6819,0.6914,0,0
2012-05-15,0.6914,0.6914,0.6914,0.6914,0,0
2012-05-16,0.6724,0.6724,0.625,0.644,0,0
2012-05-17,0.625,0.625,0.5966,0.5966,0,0
2012-05-18,0.5966,0.644,0.5682,0.644,0,0
2012-05-21,0.6345,0.7293,0.6345,0.7293,0,0
2012-05-22,0.7293,0.7482,0.7197,0.7197,0,0
2012-05-23,0.7197,0.7197,0.7008,0.7008,0,0
2012-05-24,0.7008,0.7008,0.6819,0.6819,0,0
2012-05-25,0.6914,0.6914,0.6629,0.6629,0,0
2012-05-28,0.6629,0.6629,0.644,0.6629,0,0
2012-05-29,0.6629,0.6629,0.644,0.644,0,0
2012-05-30,0.6535,0.6535,0.6157,0.6157,0,0
2012-05-31,0.6061,0.6061,0.5682,0.6061,0,0
2012-06-01,0.5966,0.6345,0.5872,0.5966,0,0
2012-06-04,0.5966,0.5966,0.5494,0.5682,0,0
2012-06-05,0.5494,0.5682,0.5303,0.5399,0,0
2012-06-06,0.5303,0.5303,0.5208,0.5208,0,0
2012-06-08,0.5115,0.5587,0.5115,0.5587,0,0
2012-06-11,0.5587,0.5778,0.5587,0.5778,0,0
2012-06-12,0.5778,0.6061,0.5778,0.5966,0,0
2012-06-13,0.6061,0.6535,0.6061,0.6535,0,0
2012-06-14,0.6535,0.7103,0.6535,0.7103,0,0
2012-06-15,0.7197,0.7482,0.7103,0.7482,0,0
2012-06-18,0.7482,0.7482,0.7482,0.7482,0,0
2012-06-19,0.7482,0.7482,0.7387,0.7482,0,0
2012-06-20,0.7482,0.7482,0.6914,0.6914,0,0
2012-06-21,0.6914,0.7008,0.644,0.644,0,0
2012-06-22,0.6535,0.6535,0.6061,0.6157,0,0
2012-06-25,0.6061,0.6061,0.5778,0.5778,0,0
2012-06-26,0.5778,0.6157,0.5778,0.6061,0,0
2012-06-27,0.625,0.644,0.5966,0.5966,0,0
2012-06-28,0.5872,0.625,0.5587,0.5682,0,0
2012-06-29,0.5682,0.5682,0.5115,0.5115,0,0
2012-07-02,0.5115,0.5115,0.44512,0.46406,0,0
2012-07-03,0.46406,0.47353,0.4167,0.42617,0,0
2012-07-04,0.42617,0.42617,0.40724,0.4167,0,0
2012-07-05,0.4167,0.44512,0.4167,0.44512,0,0
2012-07-06,0.44512,0.47353,0.44512,0.46406,0,0
2012-07-09,0.45459,0.48299,0.45459,0.48299,0,0
2012-07-10,0.502,0.502,0.47353,0.48299,0,0
2012-07-11,0.48299,0.48299,0.44512,0.45459,0,0
2012-07-12,0.44512,0.44512,0.43565,0.43565,0,0
2012-07-13,0.44512,0.44512,0.43565,0.44512,0,0
2012-07-16,0.44512,0.44512,0.44512,0.44512,0,0
2012-07-17,0.44512,0.44512,0.43565,0.44512,0,0
2012-07-18,0.43565,0.46406,0.43565,0.46406,0,0
2012-07-19,0.46406,0.46406,0.44512,0.44512,0,0
2012-07-20,0.44512,0.44512,0.44512,0.44512,0,0
2012-07-23,0.43565,0.43565,0.42617,0.43565,0,0
2012-07-24,0.43565,0.43565,0.42617,0.43565,0,0
2012-07-25,0.42617,0.43565,0.42617,0.43565,0,0
2012-07-26,0.43565,0.43565,0.4167,0.42617,0,0
2012-07-27,0.42617,0.43565,0.4167,0.43565,0,0
2012-07-30,0.42617,0.43565,0.42617,0.43565,0,0
2012-07-31,0.43565,0.43565,0.4167,0.42617,0,0
2012-08-01,0.4167,0.42617,0.3883,0.40724,0,0
2012-08-02,0.40724,0.43565,0.39776,0.40724,0,0
2012-08-03,0.4167,0.4167,0.3883,0.39776,0,0
2012-08-06,0.39776,0.39776,0.39776,0.39776,0,0
2012-08-07,0.39776,0.4167,0.39776,0.4167,0,0
2012-08-08,0.4167,0.43565,0.4167,0.42617,0,0
2012-08-09,0.42617,0.42617,0.42617,0.42617,0,0
2012-08-10,0.42617,0.42617,0.42617,0.42617,0,0
2012-08-13,0.4167,0.43565,0.4167,0.43565,0,0
2012-08-14,0.43565,0.43565,0.4167,0.4167,0,0
2012-08-16,0.4167,0.4167,0.4167,0.4167,0,0
2012-08-17,0.4167,0.4167,0.4167,0.4167,0,0
2012-08-20,0.42617,0.42617,0.4167,0.4167,0,0
2012-08-21,0.42617,0.42617,0.40724,0.42617,0,0
2012-08-22,0.42617,0.42617,0.4167,0.42617,0,0
2012-08-23,0.42617,0.42617,0.4167,0.42617,0,0
2012-08-24,0.42617,0.44512,0.42617,0.44512,0,0
2012-08-27,0.45459,0.45459,0.44512,0.44512,0,0
2012-08-28,0.43565,0.44512,0.42617,0.43565,0,0
2012-08-29,0.43565,0.43565,0.4167,0.43565,0,0
2012-08-30,0.43565,0.44512,0.42617,0.43565,0,0
2012-08-31,0.42617,0.43565,0.40724,0.42617,0,0
2012-09-03,0.42617,0.42617,0.42617,0.42617,0,0
2012-09-04,0.43565,0.45459,0.42617,0.45459,0,0
2012-09-05,0.42617,0.45459,0.42617,0.44512,0,0
2012-09-06,0.44512,0.44512,0.42617,0.44512,0,0
2012-09-07,0.43565,0.47353,0.43565,0.45459,0,0
2012-09-10,0.45459,0.48299,0.45459,0.46406,0,0
2012-09-11,0.46406,0.47353,0.46406,0.46406,0,0
2012-09-12,0.46406,0.47353,0.46406,0.46406,0,0
2012-09-13,0.46406,0.46406,0.46406,0.46406,0,0
2012-09-14,0.46406,0.46406,0.45459,0.46406,0,0
2012-09-17,0.46406,0.46406,0.45459,0.46406,0,0
2012-09-18,0.46406,0.46406,0.45459,0.45459,0,0
2012-09-19,0.45459,0.46406,0.43565,0.46406,0,0
2012-09-20,0.46406,0.46406,0.42617,0.43565,0,0
2012-09-21,0.43565,0.44512,0.43565,0.44512,0,0
2012-09-24,0.45459,0.46406,0.45459,0.46406,0,0
2012-09-25,0.46406,0.46406,0.45459,0.46406,0,0
2012-09-26,0.46406,0.46406,0.45459,0.46406,0,0
2012-09-27,0.46406,0.49244,0.45459,0.49244,0,0
2012-09-28,0.49244,0.49244,0.47353,0.47353,0,0
2012-10-01,0.47353,0.48299,0.47353,0.48299,0,0
2012-10-02,0.47353,0.48299,0.47353,0.48299,0,0
2012-10-03,0.48299,0.48299,0.46406,0.47353,0,0
2012-10-04,0.47353,0.47353,0.45459,0.47353,0,0
2012-10-05,0.47353,0.47353,0.46406,0.47353,0,0
2012-10-08,0.47353,0.47353,0.47353,0.47353,0,0
2012-10-09,0.47353,0.502,0.47353,0.48299,0,0
2012-10-10,0.48299,0.48299,0.48299,0.48299,0,0
2012-10-11,0.48299,0.48299,0.47353,0.48299,0,0
2012-10-12,0.47353,0.49244,0.47353,0.48299,0,0
2012-10-15,0.48299,0.48299,0.47353,0.48299,0,0
2012-10-16,0.48299,0.48299,0.47353,0.47353,0,0
2012-10-17,0.47353,0.48299,0.46406,0.48299,0,0
2012-10-18,0.48299,0.48299,0.47353,0.48299,0,0
2012-10-19,0.48299,0.48299,0.47353,0.47353,0,0
2012-10-22,0.48299,0.48299,0.47353,0.48299,0,0
2012-10-23,0.47353,0.48299,0.47353,0.48299,0,0
2012-10-24,0.46406,0.47353,0.45459,0.46406,0,0
2012-10-25,0.46406,0.46406,0.46406,0.46406,0,0
2012-10-26,0.46406,0.46406,0.45459,0.46406,0,0
2012-10-29,0.46406,0.46406,0.44512,0.44512,0,0
2012-10-30,0.44512,0.45459,0.43565,0.45459,0,0
2012-10-31,0.45459,0.48299,0.45459,0.47353,0,0
2012-11-02,0.47353,0.48299,0.45459,0.46406,0,0
2012-11-05,0.45459,0.47353,0.45459,0.46406,0,0
2012-11-06,0.47353,0.47353,0.46406,0.46406,0,0
2012-11-07,0.47353,0.47353,0.46406,0.46406,0,0
2012-11-08,0.46406,0.47353,0.46406,0.46406,0,0
2012-11-09,0.46406,0.47353,0.46406,0.46406,0,0
2012-11-12,0.46406,0.46406,0.46406,0.46406,0,0
2012-11-13,0.46406,0.46406,0.44512,0.46406,0,0
2012-11-14,0.44512,0.46406,0.44512,0.46406,0,0
2012-11-15,0.45459,0.46406,0.4167,0.46406,0,0
2012-11-16,0.43565,0.46406,0.43565,0.45459,0,0
2012-11-19,0.45459,0.45459,0.45459,0.45459,0,0
2012-11-20,0.46406,0.47353,0.45459,0.47353,0,0
2012-11-21,0.47353,0.47353,0.47353,0.47353,0,0
2012-11-22,0.47353,0.47353,0.47353,0.47353,0,0
2012-11-23,0.47353,0.47353,0.47353,0.47353,0,0
2012-11-26,0.47353,0.47353,0.47353,0.47353,0,0
2012-11-27,0.46406,0.46406,0.46406,0.46406,0,0
2012-11-28,0.46406,0.46406,0.44512,0.45459,0,0
2012-11-29,0.45459,0.47353,0.42617,0.42617,0,0
2012-11-30,0.44512,0.47353,0.44512,0.46406,0,0
2012-12-03,0.47353,0.49244,0.46406,0.49244,0,0
2012-12-04,0.48299,0.48299,0.48299,0.48299,0,0
2012-12-05,0.48299,0.48299,0.48299,0.48299,0,0
2012-12-06,0.48299,0.48299,0.46406,0.48299,0,0
2012-12-07,0.48299,0.49244,0.46406,0.48299,0,0
2012-12-10,0.48299,0.49244,0.47353,0.48299,0,0
2012-12-11,0.48299,0.48299,0.47353,0.48299,0,0
2012-12-12,0.48299,0.48299,0.47353,0.48299,0,0
2012-12-13,0.48299,0.5303,0.46406,0.5303,0,0
2012-12-14,0.5303,0.5494,0.5303,0.5399,0,0
2012-12-17,0.5587,0.5587,0.5208,0.5208,0,0
2012-12-18,0.5303,0.5303,0.5115,0.5115,0,0
2012-12-19,0.5208,0.5303,0.5115,0.5303,0,0
2012-12-20,0.5303,0.5303,0.5115,0.5208,0,0
2012-12-21,0.5208,0.5208,0.5115,0.5115,0,0
2012-12-27,0.5115,0.5208,0.502,0.5208,0,0
2012-12-28,0.5208,0.5303,0.5115,0.5303,0,0
2013-01-02,0.5303,0.5303,0.5208,0.5208,0,0
2013-01-03,0.5115,0.5208,0.502,0.5115,0,0
2013-01-04,0.5115,0.5115,0.502,0.5115,0,0
2013-01-07,0.5115,0.5115,0.502,0.5115,0,0
2013-01-08,0.5115,0.5115,0.502,0.502,0,0
2013-01-09,0.502,0.502,0.502,0.502,0,0
2013-01-10,0.5115,0.5115,0.502,0.502,0,0
2013-01-11,0.502,0.5115,0.502,0.5115,0,0
2013-01-14,0.502,0.5115,0.502,0.5115,0,0
2013-01-15,0.5115,0.5115,0.502,0.502,0,0
2013-01-17,0.502,0.5115,0.502,0.5115,0,0
2013-01-18,0.5115,0.5115,0.502,0.502,0,0
2013-01-21,0.5115,0.6157,0.5115,0.5872,0,0
2013-01-22,0.5778,0.5872,0.5682,0.5682,0,0
2013-01-23,0.5778,0.5778,0.5587,0.5682,0,0
2013-01-24,0.5587,0.5966,0.5587,0.5872,0,0
2013-01-25,0.5872,0.5872,0.5778,0.5872,0,0
2013-01-28,0.5872,0.625,0.5872,0.6157,0,0
2013-01-29,0.6157,0.625,0.5966,0.6157,0,0
2013-01-30,0.6157,0.644,0.5872,0.6157,0,0
2013-01-31,0.6061,0.6061,0.5872,0.5966,0,0
2013-02-01,0.5872,0.5966,0.5682,0.5778,0,0
2013-02-04,0.5587,0.5872,0.5587,0.5778,0,0
2013-02-05,0.5778,0.5966,0.5778,0.5966,0,0
2013-02-06,0.5966,0.5966,0.5872,0.5872,0,0
2013-02-07,0.5872,0.5966,0.5682,0.5778,0,0
2013-02-08,0.5778,0.5778,0.5587,0.5778,0,0
2013-02-11,0.5872,0.6061,0.5872,0.5966,0,0
2013-02-12,0.5966,0.6061,0.5966,0.6061,0,0
2013-02-13,0.6061,0.6157,0.5966,0.5966,0,0
2013-02-14,0.5966,0.6061,0.5966,0.5966,0,0
2013-02-15,0.5966,0.6061,0.5966,0.6061,0,0
2013-02-18,0.6061,0.6345,0.6061,0.6345,0,0
2013-02-19,0.6345,0.6629,0.6157,0.6629,0,0
2013-02-20,0.6629,0.6629,0.6345,0.6345,0,0
2013-02-21,0.6157,0.644,0.6157,0.644,0,0
2013-02-22,0.6345,0.6535,0.6345,0.6535,0,0
2013-02-25,0.644,0.6724,0.644,0.6629,0,0
2013-02-26,0.6629,0.7008,0.6629,0.6914,0,0
2013-02-27,0.6914,0.7008,0.6629,0.6724,0,0
2013-02-28,0.6629,0.6819,0.6629,0.6724,0,0
2013-03-01,0.6629,0.6724,0.6629,0.6724,0,0
2013-03-04,0.6724,0.6724,0.6535,0.6535,0,0
2013-03-05,0.6535,0.6535,0.6345,0.6345,0,0
2013-03-06,0.6345,0.6535,0.6345,0.6535,0,0
2013-03-07,0.6535,0.6629,0.6535,0.6535,0,0
2013-03-08,0.6535,0.6535,0.6157,0.644,0,0
2013-03-11,0.6629,0.6629,0.6345,0.644,0,0
2013-03-12,0.644,0.6535,0.6345,0.6345,0,0
2013-03-13,0.6345,0.644,0.5966,0.625,0,0
2013-03-14,0.625,0.625,0.6061,0.6061,0,0
2013-03-15,0.6157,0.6345,0.5966,0.6157,0,0
2013-03-18,0.6345,0.644,0.6345,0.644,0,0
2013-03-19,0.6345,0.644,0.6345,0.6345,0,0
2013-03-20,0.6345,0.644,0.6345,0.644,0,0
2013-03-21,0.6345,0.6345,0.6061,0.625,0,0
2013-03-22,0.6061,0.6535,0.5778,0.6535,0,0
2013-03-25,0.6629,0.6629,0.6345,0.644,0,0
2013-03-26,0.625,0.644,0.5872,0.6061,0,0
2013-03-27,0.6345,0.6345,0.6061,0.6061,0,0
2013-03-28,0.625,0.6345,0.6157,0.625,0,0
2013-04-02,0.6157,0.625,0.5966,0.6061,0,0
2013-04-03,0.6061,0.6061,0.6061,0.6061,0,0
2013-04-04,0.6061,0.6061,0.5872,0.5872,0,0
2013-04-05,0.6061,0.6157,0.5872,0.5872,0,0
2013-04-08,0.5682,0.6061,0.5682,0.5872,0,0
2013-04-09,0.5966,0.6061,0.5966,0.5966,0,0
2013-04-10,0.5872,0.5966,0.5494,0.5587,0,0
2013-04-11,0.5587,0.5587,0.5399,0.5587,0,0
2013-04-12,0.5587,0.5587,0.5399,0.5399,0,0
2013-04-15,0.5399,0.5399,0.5399,0.5399,0,0
2013-04-17,0.5494,0.5494,0.5303,0.5399,0,0
2013-04-18,0.5303,0.5303,0.5115,0.5115,0,0
2013-04-19,0.5208,0.5208,0.48299,0.5115,0,0
2013-04-22,0.5208,0.5208,0.48299,0.502,0,0
2013-04-23,0.48299,0.502,0.48299,0.502,0,0
2013-04-24,0.502,0.5115,0.502,0.5115,0,0
2013-04-25,0.502,0.5115,0.49244,0.49244,0,0
2013-04-26,0.49244,0.502,0.48299,0.502,0,0
2013-04-29,0.5115,0.5208,0.5115,0.5115,0,0
2013-04-30,0.5115,0.5115,0.5115,0.5115,0,0
2013-05-02,0.5115,0.5115,0.5115,0.5115,0,0
2013-05-06,0.5115,0.5115,0.49244,0.502,0,0
2013-05-07,0.48299,0.5115,0.48299,0.5115,0,0
2013-05-08,0.5115,0.5208,0.502,0.5208,0,0
2013-05-09,0.5303,0.5399,0.5208,0.5208,0,0
2013-05-10,0.5303,0.5399,0.5208,0.5399,0,0
2013-05-13,0.5399,0.5587,0.5399,0.5587,0,0
2013-05-14,0.5587,0.5778,0.5587,0.5778,0,0
2013-05-15,0.5872,0.644,0.5872,0.644,0,0
2013-05-16,0.6535,0.6535,0.6345,0.6535,0,0
2013-05-17,0.6629,0.6629,0.644,0.6535,0,0
2013-05-20,0.644,0.6535,0.6345,0.644,0,0
2013-05-21,0.644,0.644,0.6345,0.644,0,0
2013-05-22,0.6345,0.6345,0.6345,0.6345,0,0
2013-05-23,0.6345,0.6345,0.5872,0.6345,0,0
2013-05-24,0.6345,0.6345,0.6157,0.625,0,0
2013-05-27,0.5872,0.644,0.5872,0.644,0,0
2013-05-28,0.625,0.644,0.625,0.6345,0,0
2013-05-29,0.6535,0.6535,0.6157,0.6345,0,0
2013-05-31,0.625,0.644,0.625,0.6345,0,0
2013-06-03,0.644,0.644,0.6345,0.644,0,0
2013-06-04,0.644,0.644,0.6157,0.6345,0,0
2013-06-05,0.625,0.6345,0.625,0.6345,0,0
2013-06-06,0.625,0.625,0.625,0.625,0,0
2013-06-07,0.625,0.625,0.5966,0.6157,0,0
2013-06-10,0.6061,0.6535,0.6061,0.6535,0,0
2013-06-11,0.625,0.6535,0.625,0.644,0,0
2013-06-12,0.644,0.644,0.6157,0.625,0,0
2013-06-13,0.6061,0.644,0.6061,0.644,0,0
2013-06-14,0.6345,0.6535,0.6345,0.6535,0,0
2013-06-17,0.6535,0.6535,0.6345,0.6535,0,0
2013-06-18,0.6629,0.6724,0.644,0.6724,0,0
2013-06-19,0.6724,0.7008,0.6724,0.7008,0,0
2013-06-20,0.7103,0.7103,0.644,0.6914,0,0
2013-06-21,0.6345,0.6914,0.6345,0.6914,0,0
2013-06-24,0.6345,0.644,0.6345,0.644,0,0
2013-06-25,0.6345,0.644,0.6345,0.644,0,0
2013-06-26,0.6345,0.6345,0.6345,0.6345,0,0
2013-06-27,0.644,0.6535,0.6061,0.6157,0,0
2013-06-28,0.6157,0.6157,0.5587,0.6157,0,0
2013-07-01,0.6157,0.6157,0.5872,0.5872,0,0
2013-07-02,0.5872,0.6061,0.5872,0.6061,0,0
2013-07-03,0.5966,0.625,0.5966,0.625,0,0
2013-07-04,0.625,0.6345,0.6061,0.6157,0,0
2013-07-05,0.6157,0.6157,0.6061,0.6061,0,0
2013-07-08,0.6061,0.6061,0.5966,0.6061,0,0
2013-07-09,0.6157,0.6157,0.6061,0.6061,0,0
2013-07-10,0.6061,0.6061,0.5966,0.6061,0,0
2013-07-11,0.6061,0.6061,0.5966,0.6061,0,0
2013-07-12,0.6061,0.6061,0.5872,0.5966,0,0
2013-07-15,0.5966,0.6061,0.5966,0.6061,0,0
2013-07-16,0.6157,0.6157,0.5966,0.6157,0,0
2013-07-17,0.6157,0.6157,0.6061,0.6157,0,0
2013-07-18,0.6061,0.6061,0.6061,0.6061,0,0
2013-07-22,0.5966,0.5966,0.5778,0.5778,0,0
2013-07-23,0.5778,0.5778,0.5778,0.5778,0,0
2013-07-24,0.5872,0.6061,0.5872,0.5872,0,0
2013-07-25,0.6061,0.6157,0.6061,0.6157,0,0
2013-07-26,0.6157,0.6157,0.6061,0.6157,0,0
2013-07-29,0.6157,0.6157,0.6157,0.6157,0,0
2013-07-30,0.6157,0.6157,0.6061,0.6061,0,0
2013-07-31,0.6061,0.6061,0.5966,0.5966,0,0
2013-08-01,0.6061,0.6061,0.5872,0.5872,0,0
2013-08-02,0.5872,0.6061,0.5872,0.6061,0,0
2013-08-05,0.6061,0.6061,0.6061,0.6061,0,0
2013-08-06,0.6061,0.6157,0.6061,0.6157,0,0
2013-08-07,0.6157,0.644,0.6157,0.644,0,0
2013-08-08,0.6914,0.6914,0.6724,0.6819,0,0
2013-08-09,0.6819,0.6819,0.6345,0.6724,0,0
2013-08-12,0.6819,0.6819,0.6535,0.6535,0,0
2013-08-13,0.6535,0.6535,0.644,0.644,0,0
2013-08-14,0.644,0.6914,0.644,0.6914,0,0
2013-08-16,0.7008,0.7008,0.6724,0.6724,0,0
2013-08-19,0.6724,0.7008,0.6724,0.7008,0,0
2013-08-20,0.7103,0.7197,0.7008,0.7103,0,0
2013-08-21,0.7103,0.7103,0.6914,0.6914,0,0
2013-08-22,0.7103,0.7103,0.6914,0.7008,0,0
2013-08-23,0.7008,0.7103,0.7008,0.7008,0,0
2013-08-26,0.7008,0.7293,0.7008,0.7197,0,0
2013-08-27,0.7293,0.7293,0.7197,0.7197,0,0
2013-08-28,0.7197,0.7197,0.7197,0.7197,0,0
2013-08-29,0.7197,0.7197,0.7103,0.7103,0,0
2013-08-30,0.7197,0.7197,0.644,0.7103,0,0
2013-09-02,0.6819,0.6819,0.6819,0.6819,0,0
2013-09-03,0.6914,0.7197,0.6914,0.7197,0,0
2013-09-04,0.7197,0.7293,0.7103,0.7293,0,0
2013-09-05,0.7293,0.7293,0.7008,0.7197,0,0
2013-09-06,0.7103,0.7197,0.7103,0.7197,0,0
2013-09-09,0.7103,0.7197,0.7103,0.7197,0,0
2013-09-10,0.7197,0.7576,0.7008,0.7576,0,0
2013-09-11,0.7671,0.786,0.7671,0.786,0,0
2013-09-12,0.786,0.786,0.786,0.786,0,0
2013-09-13,0.8239,0.8997,0.8239,0.8808,0,0
2013-09-16,0.9565,0.9565,0.9092,0.9471,0,0
2013-09-17,0.9471,1.0039,0.9376,0.9944,0,0
2013-09-18,0.9944,0.9944,0.9565,0.966,0,0
2013-09-19,0.966,1.0134,0.9471,0.9849,0,0
2013-09-20,0.9944,0.9944,0.9849,0.9849,0,0
2013-09-23,0.9755,0.9755,0.9376,0.9376,0,0
2013-09-24,0.9376,0.9376,0.9186,0.9186,0,0
2013-09-25,0.9186,0.9376,0.9092,0.9281,0,0
2013-09-26,0.9281,0.9281,0.9092,0.9281,0,0
2013-09-27,0.9376,0.9376,0.9092,0.9092,0,0
2013-09-30,0.9092,0.9186,0.8618,0.9186,0,0
2013-10-01,0.9092,0.9092,0.8902,0.9092,0,0
2013-10-02,0.9092,0.9092,0.8808,0.8902,0,0
2013-10-03,0.8902,0.9186,0.8902,0.9092,0,0
2013-10-04,0.9092,0.9281,0.8902,0.9281,0,0
2013-10-07,0.9281,0.9281,0.8902,0.9092,0,0
2013-10-08,0.8997,0.9092,0.8997,0.8997,0,0
2013-10-09,0.8902,0.8997,0.8902,0.8902,0,0
2013-10-10,0.8902,0.9376,0.8618,0.9376,0,0
2013-10-11,0.9376,0.9376,0.9186,0.9376,0,0
2013-10-14,0.9376,0.9376,0.9281,0.9376,0,0
2013-10-15,0.9376,0.9376,0.9186,0.9281,0,0
2013-10-16,0.9186,0.9281,0.9186,0.9281,0,0
2013-10-17,0.9281,0.9281,0.9186,0.9186,0,0
2013-10-18,0.9186,0.9281,0.9092,0.9281,0,0
2013-10-21,0.9186,0.9376,0.9092,0.9376,0,0
2013-10-22,0.9376,0.9755,0.9281,0.966,0,0
2013-10-23,0.9565,0.9755,0.9565,0.966,0,0
2013-10-24,0.9849,0.9849,0.966,0.9849,0,0
2013-10-25,0.9849,0.9944,0.9755,0.9849,0,0
2013-10-28,0.9755,1.0228,0.9755,1.0228,0,0
2013-10-29,1.0228,1.0323,1.0134,1.0228,0,0
2013-10-30,1.0323,1.0511,1.0323,1.0323,0,0
2013-10-31,1.0134,1.0228,1.0134,1.0228,0,0
2013-11-04,1.0323,1.0418,1.0228,1.0323,0,0
2013-11-05,1.0323,1.0323,1.0323,1.0323,0,0
2013-11-06,1.0228,1.0323,1.0039,1.0323,0,0
2013-11-07,1.0323,1.0418,1.0228,1.0418,0,0
2013-11-08,1.0418,1.0418,1.0039,1.0039,0,0
2013-11-12,1.0039,1.0228,0.9755,1.0228,0,0
2013-11-13,1.0228,1.0228,1.0228,1.0228,0,0
2013-11-14,1.0228,1.0323,1.0134,1.0228,0,0
2013-11-15,1.0323,1.0986,1.0228,1.0797,0,0
2013-11-18,1.0986,1.0986,1.0797,1.0797,0,0
2013-11-19,1.0702,1.146,1.0702,1.146,0,0
2013-11-20,1.146,1.146,1.0986,1.1365,0,0
2013-11-21,1.1269,1.1269,1.1081,1.1269,0,0
2013-11-22,1.1269,1.146,1.1269,1.1365,0,0
2013-11-25,1.1365,1.146,1.1365,1.1365,0,0
2013-11-26,1.1365,1.146,1.0797,1.1081,0,0
2013-11-27,1.0797,1.1081,1.0702,1.0702,0,0
2013-11-28,1.0702,1.0986,1.0418,1.0607,0,0
2013-11-29,1.0607,1.0607,1.0323,1.0607,0,0
2013-12-02,1.0702,1.0797,1.0607,1.0607,0,0
2013-12-03,1.0607,1.0607,1.0511,1.0607,0,0
2013-12-04,1.0418,1.0418,1.0228,1.0418,0,0
2013-12-05,1.0418,1.0607,1.0418,1.0511,0,0
2013-12-06,1.0323,1.0323,0.9376,1.0323,0,0
2013-12-09,1.0323,1.0418,1.0228,1.0418,0,0
2013-12-10,1.0418,1.0418,1.0228,1.0418,0,0
2013-12-11,1.0418,1.0607,1.0228,1.0511,0,0
2013-12-12,1.0607,1.0607,1.0228,1.0418,0,0
2013-12-13,1.0323,1.0511,1.0228,1.0511,0,0
2013-12-16,1.0511,1.0511,1.0228,1.0323,0,0
2013-12-17,1.0323,1.0323,0.9944,0.9944,0,0
2013-12-18,1.0039,1.0134,0.9755,1.0134,0,0
2013-12-19,1.0039,1.0134,1.0039,1.0134,0,0
2013-12-20,1.0134,1.0134,0.9471,1.0039,0,0
2013-12-23,1.0228,1.0228,1.0039,1.0134,0,0
2013-12-27,1.0134,1.0134,1.0134,1.0134,0,0
2013-12-30,1.0039,1.0228,0.9944,1.0039,0,0
2014-01-02,1.0228,1.0228,1.0134,1.0228,0,0
2014-01-03,1.0228,1.0228,1.0228,1.0228,0,0
2014-01-07,1.0228,1.0228,0.9944,1.0039,0,0
2014-01-08,1.0039,1.0228,1.0039,1.0228,0,0
2014-01-09,1.0134,1.0134,1.0134,1.0134,0,0
2014-01-10,1.0134,1.0702,1.0039,1.0134,0,0
2014-01-13,1.0228,1.0607,1.0228,1.0607,0,0
2014-01-14,1.0323,1.0511,1.0323,1.0511,0,0
2014-01-15,1.0511,1.0607,1.0323,1.0323,0,0
2014-01-16,1.0418,1.0418,1.0323,1.0323,0,0
2014-01-17,1.0418,1.0418,1.0323,1.0323,0,0
2014-01-20,1.0323,1.0418,1.0323,1.0323,0,0
2014-01-21,1.0323,1.0702,1.0323,1.0607,0,0
2014-01-22,1.0702,1.089,1.0607,1.0702,0,0
2014-01-23,1.0797,1.1081,1.0702,1.1081,0,0
2014-01-24,1.1081,1.1176,1.1081,1.1176,0,0
2014-01-27,1.0986,1.1176,1.089,1.1176,0,0
2014-01-28,1.1081,1.1648,1.0986,1.1554,0,0
2014-01-29,1.1932,1.2027,1.1744,1.1932,0,0
2014-01-30,1.1839,1.2786,1.1744,1.2596,0,0
2014-01-31,1.2786,1.2786,1.2502,1.2596,0,0
2014-02-03,1.2596,1.2975,1.2596,1.2786,0,0
2014-02-04,1.2786,1.2786,1.269,1.269,0,0
2014-02-05,1.2406,1.2406,1.2123,1.2311,0,0
2014-02-06,1.2311,1.2311,1.1839,1.1839,0,0
2014-02-07,1.2027,1.2027,1.1744,1.1839,0,0
2014-02-10,1.1839,1.2027,1.1744,1.1744,0,0
2014-02-11,1.1744,1.2027,1.146,1.1648,0,0
2014-02-12,1.1648,1.2217,1.1648,1.2123,0,0
2014-02-13,1.2217,1.2217,1.2027,1.2217,0,0
2014-02-14,1.2217,1.2217,1.1932,1.2027,0,0
2014-02-17,1.1932,1.1932,1.1744,1.1932,0,0
2014-02-18,1.1744,1.2027,1.1648,1.1839,0,0
2014-02-19,1.1932,1.1932,1.1648,1.1839,0,0
2014-02-20,1.1839,1.1932,1.1839,1.1839,0,0
2014-02-21,1.1648,1.1932,1.1648,1.1932,0,0
2014-02-24,1.1744,1.1932,1.1744,1.1839,0,0
2014-02-25,1.1839,1.1839,1.1554,1.1648,0,0
2014-02-26,1.1648,1.1648,1.1269,1.1269,0,0
2014-02-27,1.1269,1.1269,1.0797,1.0986,0,0
2014-02-28,1.0797,1.1269,1.0797,1.1269,0,0
2014-03-03,1.089,1.089,1.0134,1.0323,0,0
2014-03-04,1.0323,1.0607,1.0323,1.0607,0,0
2014-03-05,1.0702,1.0986,1.0607,1.0986,0,0
2014-03-06,1.089,1.0986,1.0702,1.0702,0,0
2014-03-07,1.0702,1.0702,1.0511,1.0511,0,0
2014-03-10,1.0323,1.0511,1.0039,1.0228,0,0
2014-03-11,1.0228,1.0511,1.0134,1.0511,0,0
2014-03-12,1.0418,1.0418,1.0228,1.0228,0,0
2014-03-13,1.0228,1.0323,1.0134,1.0323,0,0
2014-03-14,1.0323,1.0323,0.9849,0.9849,0,0
2014-03-17,0.9849,1.0039,0.9849,1.0039,0,0
2014-03-18,1.0039,1.0134,1.0039,1.0134,0,0
2014-03-19,1.0134,1.0986,1.0134,1.0986,0,0
2014-03-20,1.1081,1.1269,1.0797,1.1176,0,0
2014-03-21,1.1269,1.1269,1.1081,1.1176,0,0
2014-03-24,1.1176,1.1176,1.0607,1.0797,0,0
2014-03-25,1.0702,1.089,1.0607,1.0607,0,0
2014-03-26,1.0607,1.0607,1.0418,1.0511,0,0
2014-03-27,1.0511,1.0511,1.0323,1.0323,0,0
2014-03-28,1.0323,1.0323,0.9944,1.0039,0,0
2014-03-31,0.9944,1.0511,0.9944,1.0511,0,0
2014-04-01,1.0511,1.0511,0.9944,1.0039,0,0
2014-04-02,1.0039,1.0039,0.9755,0.9849,0,0
2014-04-03,0.9755,1.0039,0.9755,1.0039,0,0
2014-04-04,0.9849,1.0039,0.9849,1.0039,0,0
2014-04-07,0.9849,0.9849,0.9755,0.9755,0,0
2014-04-08,0.9849,0.9849,0.9755,0.9755,0,0
2014-04-09,0.9755,0.9849,0.9755,0.9755,0,0
2014-04-10,0.9849,0.9849,0.9755,0.9755,0,0
2014-04-11,0.9755,0.9755,0.966,0.9755,0,0
2014-04-14,0.966,0.966,0.9565,0.9565,0,0
2014-04-15,0.9186,0.9376,0.9092,0.9092,0,0
2014-04-16,0.9092,0.9092,0.8808,0.8997,0,0
2014-04-17,0.9092,0.9092,0.8902,0.8902,0,0
2014-04-22,0.8902,0.9281,0.8902,0.9281,0,0
2014-04-23,0.9281,0.9376,0.9092,0.9092,0,0
2014-04-24,0.9092,0.9186,0.8902,0.8902,0,0
2014-04-25,0.8902,0.8997,0.8902,0.8902,0,0
2014-04-28,0.8997,0.8997,0.8997,0.8997,0,0
2014-04-29,0.9092,0.9092,0.9092,0.9092,0,0
2014-04-30,0.9092,0.9092,0.8997,0.8997,0,0
2014-05-02,0.9092,0.9092,0.8997,0.8997,0,0
2014-05-05,0.9092,0.9092,0.8808,0.8808,0,0
2014-05-06,0.8808,0.8808,0.8714,0.8808,0,0
2014-05-07,0.8808,0.8808,0.8239,0.8523,0,0
2014-05-08,0.8523,0.8523,0.8429,0.8429,0,0
2014-05-09,0.8334,0.8334,0.805,0.805,0,0
2014-05-12,0.7955,0.805,0.786,0.805,0,0
2014-05-13,0.7955,0.805,0.7955,0.7955,0,0
2014-05-14,0.805,0.8145,0.7955,0.7955,0,0
2014-05-15,0.8239,0.8523,0.8239,0.8334,0,0
2014-05-16,0.8239,0.8429,0.8239,0.8334,0,0
2014-05-19,0.8334,0.8334,0.8145,0.8145,0,0
2014-05-20,0.8145,0.8239,0.805,0.8239,0,0
2014-05-21,0.805,0.8239,0.7955,0.8239,0,0
2014-05-22,0.8239,0.8334,0.805,0.8334,0,0
2014-05-23,0.8334,0.8334,0.8145,0.8239,0,0
2014-05-26,0.8334,0.8334,0.8239,0.8239,0,0
2014-05-27,0.8239,0.8334,0.8239,0.8239,0,0
2014-05-28,0.8239,0.8429,0.8239,0.8239,0,0
2014-05-29,0.8239,0.8334,0.8239,0.8239,0,0
2014-05-30,0.8334,0.8334,0.8334,0.8334,0,0
2014-06-02,0.8429,0.8429,0.8334,0.8334,0,0
2014-06-03,0.8429,0.8429,0.8145,0.8334,0,0
2014-06-04,0.8334,0.8429,0.8334,0.8429,0,0
2014-06-05,0.8334,0.8523,0.8334,0.8429,0,0
2014-06-06,0.8523,0.8523,0.8429,0.8523,0,0
2014-06-09,0.8523,0.8523,0.8429,0.8429,0,0
2014-06-10,0.8523,0.8523,0.8523,0.8523,0,0
2014-06-11,0.8523,0.8523,0.8429,0.8429,0,0
2014-06-12,0.8429,0.8429,0.8429,0.8429,0,0
2014-06-13,0.8239,0.8334,0.8239,0.8334,0,0
2014-06-16,0.8239,0.8239,0.8239,0.8239,0,0
2014-06-17,0.8239,0.8239,0.8239,0.8239,0,0
2014-06-18,0.8239,0.8239,0.8239,0.8239,0,0
2014-06-20,0.8239,0.8239,0.8145,0.8239,0,0
2014-06-23,0.8145,0.8429,0.8145,0.8239,0,0
2014-06-24,0.8523,0.8523,0.8334,0.8334,0,0
2014-06-25,0.8334,0.8334,0.7955,0.8334,0,0
2014-06-26,0.9251,0.9251,0.8569,0.8764,0,0
2014-06-27,0.8764,0.8764,0.8667,0.8667,0,0
2014-06-30,0.8569,0.8569,0.8374,0.8569,0,0
2014-07-01,0.8374,0.8374,0.8277,0.8277,0,0
2014-07-03,0.818,0.8277,0.8082,0.8277,0,0
2014-07-04,0.8277,0.8277,0.8082,0.8082,0,0
2014-07-07,0.8082,0.8082,0.779,0.7985,0,0
2014-07-08,0.8082,0.8082,0.7888,0.7985,0,0
2014-07-10,0.7888,0.7888,0.7693,0.779,0,0
2014-07-11,0.7595,0.7888,0.7595,0.7888,0,0
2014-07-14,0.7693,0.7985,0.7693,0.7888,0,0
2014-07-15,0.7888,0.7888,0.7693,0.779,0,0
2014-07-16,0.779,0.7888,0.7693,0.7888,0,0
2014-07-17,0.7595,0.7888,0.7595,0.7888,0,0
2014-07-18,0.7888,0.7985,0.7693,0.7985,0,0
2014-07-21,0.7985,0.7985,0.779,0.7888,0,0
2014-07-22,0.779,0.7888,0.7595,0.7888,0,0
2014-07-23,0.779,0.779,0.7693,0.7693,0,0
2014-07-24,0.7595,0.7693,0.7595,0.7595,0,0
2014-07-25,0.7595,0.7595,0.7498,0.7498,0,0
2014-07-28,0.7498,0.7595,0.7498,0.7498,0,0
2014-07-29,0.7498,0.7693,0.7401,0.7693,0,0
2014-07-30,0.7693,0.7693,0.7693,0.7693,0,0
2014-07-31,0.7595,0.7595,0.7595,0.7595,0,0
2014-08-01,0.7498,0.7595,0.7401,0.7498,0,0
2014-08-04,0.7498,0.7498,0.7498,0.7498,0,0
2014-08-05,0.7595,0.7693,0.7303,0.7303,0,0
2014-08-06,0.7303,0.7303,0.7109,0.7109,0,0
2014-08-07,0.7109,0.7109,0.6914,0.6914,0,0
2014-08-08,0.6914,0.6914,0.6719,0.6719,0,0
2014-08-11,0.7109,0.7109,0.6817,0.6817,0,0
2014-08-12,0.6914,0.6914,0.6914,0.6914,0,0
2014-08-13,0.6817,0.6914,0.6817,0.6914,0,0
2014-08-14,0.6719,0.6817,0.6621,0.6817,0,0
2014-08-18,0.6817,0.6817,0.6817,0.6817,0,0
2014-08-19,0.6817,0.6817,0.6817,0.6817,0,0
2014-08-20,0.6817,0.6914,0.6817,0.6914,0,0
2014-08-21,0.6914,0.7303,0.6914,0.7303,0,0
2014-08-22,0.7303,0.7595,0.7206,0.7206,0,0
2014-08-25,0.7401,0.7693,0.7401,0.7498,0,0
2014-08-26,0.7595,0.8082,0.7595,0.7693,0,0
2014-08-27,0.779,0.8082,0.779,0.8082,0,0
2014-08-28,0.8082,0.8082,0.7498,0.7693,0,0
2014-08-29,0.7693,0.7693,0.7498,0.7693,0,0
2014-09-01,0.7693,0.7693,0.7498,0.7498,0,0
2014-09-02,0.7498,0.7498,0.7498,0.7498,0,0
2014-09-03,0.7498,0.7693,0.7498,0.7595,0,0
2014-09-04,0.7693,0.779,0.7693,0.7693,0,0
2014-09-05,0.7693,0.7693,0.7401,0.7498,0,0
2014-09-08,0.7401,0.7693,0.7401,0.7693,0,0
2014-09-09,0.7693,0.7888,0.7595,0.7888,0,0
2014-09-10,0.7888,0.818,0.7888,0.8082,0,0
2014-09-11,0.8082,0.8082,0.7498,0.7595,0,0
2014-09-12,0.7693,0.779,0.7595,0.7595,0,0
2014-09-15,0.7693,0.779,0.7693,0.779,0,0
2014-09-16,0.779,0.8082,0.779,0.7888,0,0
2014-09-17,0.7985,0.7985,0.7888,0.7888,0,0
2014-09-18,0.779,0.7888,0.779,0.7888,0,0
2014-09-19,0.7985,0.7985,0.7888,0.7985,0,0
2014-09-22,0.7985,0.7985,0.7985,0.7985,0,0
2014-09-23,0.7888,0.7888,0.7498,0.7693,0,0
2014-09-24,0.7693,0.7693,0.7498,0.7498,0,0
2014-09-25,0.7498,0.779,0.7498,0.779,0,0
2014-09-29,0.7693,0.7693,0.7693,0.7693,0,0
2014-09-30,0.7693,0.779,0.7595,0.779,0,0
2014-10-01,0.7693,0.7693,0.7595,0.7595,0,0
2014-10-02,0.7498,0.7595,0.7498,0.7498,0,0
2014-10-03,0.7498,0.7693,0.7498,0.7693,0,0
2014-10-06,0.7693,0.7693,0.7595,0.7595,0,0
2014-10-07,0.7595,0.7595,0.7595,0.7595,0,0
2014-10-08,0.7595,0.7595,0.7595,0.7595,0,0
2014-10-09,0.7595,0.7595,0.7401,0.7401,0,0
2014-10-10,0.7401,0.7401,0.7011,0.7011,0,0
2014-10-13,0.7011,0.7109,0.7011,0.7109,0,0
2014-10-14,0.7109,0.7109,0.7011,0.7011,0,0
2014-10-15,0.7109,0.7109,0.6914,0.6914,0,0
2014-10-16,0.7011,0.7011,0.6719,0.6719,0,0
2014-10-17,0.6817,0.7011,0.6719,0.7011,0,0
2014-10-20,0.7011,0.7011,0.6914,0.6914,0,0
2014-10-21,0.6914,0.7011,0.6914,0.7011,0,0
2014-10-22,0.6914,0.7011,0.6914,0.7011,0,0
2014-10-23,0.7011,0.7011,0.6914,0.6914,0,0
2014-10-24,0.7011,0.7303,0.7011,0.7109,0,0
2014-10-27,0.7109,0.7206,0.7109,0.7206,0,0
2014-10-28,0.7109,0.7401,0.7109,0.7401,0,0
2014-10-29,0.7498,0.7498,0.7303,0.7303,0,0
2014-10-30,0.7498,0.7498,0.7303,0.7401,0,0
2014-10-31,0.7401,0.7401,0.7303,0.7303,0,0
2014-11-03,0.7303,0.7303,0.7206,0.7206,0,0
2014-11-04,0.7206,0.7303,0.7206,0.7206,0,0
2014-11-05,0.7303,0.7303,0.7303,0.7303,0,0
2014-11-06,0.7206,0.7401,0.7206,0.7206,0,0
2014-11-07,0.7303,0.7303,0.7109,0.7109,0,0
2014-11-10,0.7011,0.7011,0.7011,0.7011,0,0
2014-11-12,0.7011,0.7206,0.7011,0.7206,0,0
2014-11-13,0.7109,0.7109,0.7109,0.7109,0,0
2014-11-14,0.7109,0.7109,0.7011,0.7011,0,0
2014-11-17,0.7011,0.7011,0.6914,0.6914,0,0
2014-11-18,0.6914,0.6914,0.6914,0.6914,0,0
2014-11-19,0.6914,0.6914,0.6719,0.6719,0,0
2014-11-20,0.6719,0.6719,0.6427,0.6427,0,0
2014-11-21,0.6621,0.6621,0.6329,0.6329,0,0
2014-11-24,0.6329,0.6329,0.6135,0.6135,0,0
2014-11-25,0.6233,0.6233,0.5843,0.5843,0,0
2014-11-26,0.594,0.6135,0.594,0.6037,0,0
2014-11-27,0.6037,0.6135,0.6037,0.6135,0,0
2014-11-28,0.6135,0.6135,0.6037,0.6135,0,0
2014-12-01,0.6037,0.6135,0.6037,0.6135,0,0
2014-12-02,0.6135,0.6329,0.6135,0.6233,0,0
2014-12-03,0.6427,0.6621,0.6427,0.6621,0,0
2014-12-04,0.6817,0.6817,0.6719,0.6719,0,0
2014-12-05,0.6719,0.6914,0.6427,0.6621,0,0
2014-12-08,0.6427,0.6427,0.6037,0.6427,0,0
2014-12-09,0.6329,0.6329,0.6329,0.6329,0,0
2014-12-10,0.6233,0.6233,0.594,0.6233,0,0
2014-12-11,0.6037,0.6135,0.6037,0.6135,0,0
2014-12-12,0.6037,0.6135,0.6037,0.6135,0,0
2014-12-15,0.6233,0.6233,0.6233,0.6233,0,0
2014-12-16,0.6135,0.6135,0.594,0.594,0,0
2014-12-17,0.594,0.594,0.5843,0.5843,0,0
2014-12-18,0.5843,0.6037,0.5843,0.5843,0,0
2014-12-19,0.6037,0.6037,0.594,0.594,0,0
2014-12-22,0.594,0.594,0.5647,0.5843,0,0
2014-12-23,0.5843,0.5843,0.5453,0.5745,0,0
2014-12-29,0.5647,0.5843,0.5647,0.5745,0,0
2014-12-30,0.5843,0.594,0.5843,0.594,0,0
2015-01-02,0.5843,0.5843,0.5843,0.5843,0,0
2015-01-05,0.5843,0.5843,0.5745,0.5745,0,0
2015-01-07,0.5745,0.5843,0.5745,0.5843,0,0
2015-01-08,0.5843,0.6037,0.5843,0.6037,0,0
2015-01-09,0.6037,0.6427,0.6037,0.6135,0,0
2015-01-12,0.6135,0.6525,0.6135,0.6525,0,0
2015-01-13,0.6621,0.6621,0.6427,0.6427,0,0
2015-01-14,0.6427,0.6427,0.6427,0.6427,0,0
2015-01-15,0.6329,0.6427,0.6233,0.6427,0,0
2015-01-16,0.6329,0.6621,0.6329,0.6621,0,0
2015-01-19,0.6719,0.6719,0.6427,0.6427,0,0
2015-01-20,0.6525,0.6525,0.6427,0.6427,0,0
2015-01-21,0.6329,0.6329,0.6329,0.6329,0,0
2015-01-22,0.6329,0.6329,0.6329,0.6329,0,0
2015-01-23,0.6329,0.6427,0.6329,0.6329,0,0
2015-01-26,0.6427,0.6427,0.6427,0.6427,0,0
2015-01-27,0.6427,0.6427,0.6427,0.6427,0,0
2015-01-28,0.6427,0.6427,0.6233,0.6233,0,0
2015-01-29,0.6329,0.6329,0.6329,0.6329,0,0
2015-01-30,0.6233,0.6233,0.6233,0.6233,0,0
2015-02-02,0.6233,0.6329,0.6135,0.6135,0,0
2015-02-03,0.6135,0.6233,0.6135,0.6233,0,0
2015-02-04,0.6329,0.6621,0.6329,0.6525,0,0
2015-02-05,0.6621,0.6621,0.6525,0.6525,0,0
2015-02-06,0.6525,0.6621,0.6427,0.6621,0,0
2015-02-09,0.6621,0.6914,0.6621,0.6621,0,0
2015-02-10,0.6719,0.6914,0.6621,0.6914,0,0
2015-02-11,0.6914,0.7206,0.6817,0.6914,0,0
2015-02-12,0.7011,0.7206,0.7011,0.7206,0,0
2015-02-13,0.7206,0.7693,0.7206,0.7498,0,0
2015-02-16,0.7498,0.7498,0.7109,0.7303,0,0
2015-02-17,0.7401,0.7401,0.7206,0.7206,0,0
2015-02-18,0.7206,0.7206,0.6817,0.7109,0,0
2015-02-19,0.7011,0.7011,0.7011,0.7011,0,0
2015-02-20,0.7109,0.7206,0.6914,0.7206,0,0
2015-02-23,0.7206,0.7498,0.7206,0.7498,0,0
2015-02-24,0.7498,0.7693,0.7401,0.7401,0,0
2015-02-25,0.7595,0.7595,0.7401,0.7498,0,0
2015-02-26,0.7498,0.8082,0.7498,0.7985,0,0
2015-02-27,0.8082,0.8569,0.8082,0.8374,0,0
2015-03-02,0.8082,0.8374,0.8082,0.818,0,0
2015-03-03,0.818,0.8374,0.7693,0.7985,0,0
2015-03-04,0.7693,0.7985,0.7595,0.7888,0,0
2015-03-05,0.7888,0.818,0.779,0.8082,0,0
2015-03-06,0.8082,0.818,0.779,0.818,0,0
2015-03-09,0.818,0.8374,0.8082,0.8277,0,0
2015-03-10,0.818,0.818,0.7888,0.8082,0,0
2015-03-11,0.7888,0.7888,0.7498,0.7888,0,0
2015-03-12,0.7693,0.7693,0.7595,0.7595,0,0
2015-03-13,0.7693,0.7693,0.7498,0.7498,0,0
2015-03-16,0.7595,0.7693,0.7595,0.7693,0,0
2015-03-17,0.7693,0.7888,0.7693,0.779,0,0
2015-03-18,0.7985,0.8082,0.779,0.779,0,0
2015-03-19,0.779,0.779,0.7693,0.779,0,0
2015-03-20,0.7693,0.7693,0.7109,0.7109,0,0
2015-03-23,0.7303,0.7498,0.7011,0.7303,0,0
2015-03-24,0.7206,0.7401,0.7206,0.7401,0,0
2015-03-25,0.7401,0.7401,0.7206,0.7401,0,0
2015-03-26,0.7401,0.7401,0.7206,0.7401,0,0
2015-03-30,0.7401,0.7401,0.7401,0.7401,0,0
2015-03-31,0.7401,0.7401,0.7303,0.7401,0,0
2015-04-01,0.7401,0.7401,0.7206,0.7401,0,0
2015-04-02,0.7109,0.7401,0.7109,0.7401,0,0
2015-04-07,0.7401,0.7401,0.7206,0.7401,0,0
2015-04-08,0.7206,0.7401,0.7206,0.7401,0,0
2015-04-09,0.7401,0.7401,0.7109,0.7303,0,0
2015-04-10,0.7401,0.7401,0.7303,0.7303,0,0
2015-04-13,0.7206,0.7303,0.7206,0.7303,0,0
2015-04-14,0.7401,0.7401,0.7303,0.7303,0,0
2015-04-15,0.7206,0.7206,0.7206,0.7206,0,0
2015-04-16,0.7206,0.7303,0.7206,0.7303,0,0
2015-04-17,0.7303,0.7401,0.7206,0.7206,0,0
2015-04-20,0.7206,0.7206,0.7206,0.7206,0,0
2015-04-21,0.7206,0.7206,0.7109,0.7109,0,0
2015-04-22,0.7011,0.7206,0.7011,0.7206,0,0
2015-04-23,0.7206,0.7206,0.7206,0.7206,0,0
2015-04-24,0.7206,0.7206,0.7206,0.7206,0,0
2015-04-27,0.7206,0.7206,0.7109,0.7206,0,0
2015-04-28,0.7401,0.7401,0.7303,0.7303,0,0
2015-04-29,0.7303,0.7693,0.7206,0.7595,0,0
2015-04-30,0.7595,0.7693,0.7011,0.7693,0,0
2015-05-04,0.7693,0.7693,0.7595,0.7595,0,0
2015-05-05,0.7595,0.7595,0.7498,0.7595,0,0
2015-05-06,0.7595,0.7595,0.7303,0.7595,0,0
2015-05-07,0.7595,0.7595,0.7401,0.7595,0,0
2015-05-08,0.7595,0.7595,0.7595,0.7595,0,0
2015-05-11,0.7595,0.7693,0.7595,0.7693,0,0
2015-05-12,0.7693,0.7693,0.7693,0.7693,0,0
2015-05-13,0.7498,0.7498,0.7498,0.7498,0,0
2015-05-14,0.7498,0.7693,0.7498,0.7693,0,0
2015-05-15,0.7595,0.7693,0.7498,0.7693,0,0
2015-05-18,0.7498,0.7693,0.7498,0.7693,0,0
2015-05-19,0.7693,0.7985,0.7498,0.7985,0,0
2015-05-20,0.7985,0.7985,0.7693,0.7888,0,0
2015-05-21,0.7888,0.7888,0.779,0.7888,0,0
2015-05-22,0.7888,0.7985,0.779,0.7985,0,0
2015-05-25,0.7985,0.7985,0.7498,0.7498,0,0
2015-05-26,0.7595,0.7693,0.7595,0.7693,0,0
2015-05-27,0.7693,0.7985,0.7693,0.7985,0,0
2015-05-28,0.7985,0.8472,0.7985,0.8472,0,0
2015-05-29,0.8472,0.8764,0.8277,0.8277,0,0
2015-06-01,0.8667,0.9543,0.8569,0.9543,0,0
2015-06-02,0.9543,0.9543,0.8959,0.9251,0,0
2015-06-03,0.9251,1.003,0.9251,0.9836,0,0
2015-06-05,0.9738,0.9932,0.9446,0.9738,0,0
2015-06-08,0.9932,1.003,0.9446,0.9543,0,0
2015-06-09,0.9543,0.964,0.9446,0.9446,0,0
2015-06-10,0.9154,0.9543,0.9154,0.9446,0,0
2015-06-11,0.9348,0.9446,0.9348,0.9446,0,0
2015-06-12,0.9543,0.9543,0.9446,0.9446,0,0
2015-06-15,0.9446,0.9446,0.9348,0.9446,0,0
2015-06-16,0.9446,0.9446,0.9446,0.9446,0,0
2015-06-17,0.9348,0.964,0.9348,0.9446,0,0
2015-06-18,0.9446,0.9738,0.9446,0.9738,0,0
2015-06-19,0.9738,1.003,0.9738,0.9836,0,0
2015-06-22,1.003,1.003,0.9738,0.9738,0,0
2015-06-23,0.9932,0.9932,0.964,0.964,0,0
2015-06-24,0.9543,0.964,0.9543,0.9543,0,0
2015-06-25,0.9543,0.9543,0.9543,0.9543,0,0
2015-06-26,0.9543,0.9738,0.9348,0.9348,0,0
2015-06-29,0.8388,0.9177,0.8388,0.9177,0,0
2015-06-30,0.9177,0.9177,0.9177,0.9177,0,0
2015-07-01,0.898,0.9177,0.898,0.9177,0,0
2015-07-02,0.9276,0.9276,0.9177,0.9177,0,0
2015-07-03,0.898,0.9276,0.898,0.9276,0,0
2015-07-06,0.9276,0.9276,0.8783,0.9177,0,0
2015-07-07,0.9177,0.9276,0.9177,0.9276,0,0
2015-07-08,0.9177,0.9177,0.9177,0.9177,0,0
2015-07-09,0.9177,0.9177,0.9177,0.9177,0,0
2015-07-10,0.9079,0.9177,0.9079,0.9079,0,0
2015-07-13,0.9079,0.9177,0.9079,0.9177,0,0
2015-07-14,0.9079,0.9276,0.9079,0.9276,0,0
2015-07-15,0.9276,0.9276,0.9079,0.9276,0,0
2015-07-16,0.9276,0.9276,0.9079,0.9079,0,0
2015-07-17,0.898,0.9079,0.898,0.898,0,0
2015-07-20,0.8487,0.8881,0.8388,0.8881,0,0
2015-07-21,0.8783,0.898,0.8783,0.898,0,0
2015-07-22,0.898,0.898,0.8585,0.8881,0,0
2015-07-23,0.8881,0.898,0.8783,0.8881,0,0
2015-07-24,0.898,0.9079,0.8881,0.8881,0,0
2015-07-27,0.8881,0.8881,0.8783,0.8881,0,0
2015-07-28,0.898,0.898,0.8881,0.8881,0,0
2015-07-29,0.8881,0.9177,0.8881,0.9177,0,0
2015-07-30,0.9177,0.9276,0.9079,0.9276,0,0
2015-07-31,0.9276,0.9276,0.9177,0.9177,0,0
2015-08-03,0.9177,0.9177,0.9177,0.9177,0,0
2015-08-04,0.9177,0.9375,0.9177,0.9375,0,0
2015-08-05,0.9375,1.0065,0.9079,0.9375,0,0
2015-08-06,0.9276,0.9375,0.9177,0.9375,0,0
2015-08-07,0.9375,0.9375,0.9079,0.9276,0,0
2015-08-10,0.9276,0.9276,0.898,0.9276,0,0
2015-08-11,0.9079,0.9276,0.9079,0.9276,0,0
2015-08-12,0.9177,0.9276,0.9079,0.9276,0,0
2015-08-13,0.9375,0.9375,0.9079,0.9177,0,0
2015-08-14,0.9079,0.9079,0.8881,0.8881,0,0
2015-08-17,0.8881,0.9177,0.8881,0.9177,0,0
2015-08-18,0.8881,0.9375,0.8881,0.8881,0,0
2015-08-19,0.8881,0.8881,0.8881,0.8881,0,0
2015-08-20,0.8881,0.9276,0.8881,0.9276,0,0
2015-08-21,0.9276,0.9276,0.9276,0.9276,0,0
2015-08-24,0.898,0.898,0.8388,0.8585,0,0
2015-08-25,0.8585,0.8783,0.8388,0.8585,0,0
2015-08-26,0.8191,0.8388,0.7894,0.8388,0,0
2015-08-27,0.8191,0.8388,0.8191,0.8388,0,0
2015-08-28,0.8388,0.8388,0.8388,0.8388,0,0
2015-08-31,0.8289,0.8289,0.8191,0.8191,0,0
2015-09-01,0.8092,0.8092,0.7894,0.8092,0,0
2015-09-02,0.8092,0.8092,0.7894,0.8092,0,0
2015-09-03,0.8092,0.8289,0.7993,0.8289,0,0
2015-09-04,0.8289,0.8388,0.8289,0.8388,0,0
2015-09-07,0.8388,0.8388,0.8191,0.8191,0,0
2015-09-08,0.8191,0.8191,0.7993,0.8191,0,0
2015-09-09,0.8191,0.8388,0.8191,0.8191,0,0
2015-09-10,0.8289,0.8487,0.8289,0.8388,0,0
2015-09-11,0.8487,0.8487,0.8388,0.8388,0,0
2015-09-14,0.8487,0.8487,0.8388,0.8388,0,0
2015-09-15,0.8487,0.8585,0.8289,0.8487,0,0
2015-09-16,0.8585,0.8585,0.8585,0.8585,0,0
2015-09-17,0.8487,0.8487,0.8487,0.8487,0,0
2015-09-18,0.8585,0.8585,0.8487,0.8487,0,0
2015-09-21,0.8388,0.8585,0.8388,0.8487,0,0
2015-09-22,0.8487,0.8487,0.8487,0.8487,0,0
2015-09-23,0.8388,0.8585,0.8388,0.8585,0,0
2015-09-24,0.8388,0.8388,0.8388,0.8388,0,0
2015-09-25,0.8487,0.8487,0.8092,0.8191,0,0
2015-09-28,0.8191,0.8191,0.8191,0.8191,0,0
2015-09-29,0.8289,0.8289,0.7993,0.7993,0,0
2015-09-30,0.7993,0.7993,0.7993,0.7993,0,0
2015-10-01,0.8092,0.8092,0.7302,0.7302,0,0
2015-10-02,0.7302,0.75,0.7006,0.75,0,0
2015-10-05,0.75,0.75,0.7401,0.7401,0,0
2015-10-06,0.75,0.8092,0.75,0.8092,0,0
2015-10-07,0.7993,0.7993,0.7993,0.7993,0,0
2015-10-08,0.7993,0.7993,0.7993,0.7993,0,0
2015-10-09,0.7894,0.7894,0.7598,0.7894,0,0
2015-10-12,0.7796,0.7796,0.7796,0.7796,0,0
2015-10-13,0.7796,0.7796,0.7697,0.7697,0,0
2015-10-14,0.7598,0.7796,0.75,0.7796,0,0
2015-10-15,0.7598,0.7796,0.7598,0.7598,0,0
2015-10-16,0.7598,0.7598,0.7401,0.7598,0,0
2015-10-19,0.7598,0.7598,0.7598,0.7598,0,0
2015-10-20,0.7697,0.7697,0.7598,0.7598,0,0
2015-10-21,0.7401,0.7401,0.7401,0.7401,0,0
2015-10-22,0.7598,0.7598,0.7598,0.7598,0,0
2015-10-23,0.7697,0.7697,0.7697,0.7697,0,0
2015-10-26,0.7598,0.7598,0.7598,0.7598,0,0
2015-10-27,0.7598,0.7598,0.7598,0.7598,0,0
2015-10-28,0.7598,0.7598,0.75,0.75,0,0
2015-10-29,0.75,0.75,0.7401,0.7401,0,0
2015-10-30,0.7401,0.7598,0.7401,0.7598,0,0
2015-11-02,0.7598,0.7598,0.7401,0.7401,0,0
2015-11-03,0.7401,0.7401,0.7401,0.7401,0,0
2015-11-04,0.7401,0.7401,0.7401,0.7401,0,0
2015-11-05,0.75,0.75,0.75,0.75,0,0
2015-11-06,0.75,0.7598,0.7401,0.75,0,0
2015-11-09,0.75,0.7598,0.7401,0.7401,0,0
2015-11-10,0.7598,0.7598,0.7204,0.7598,0,0
2015-11-12,0.7598,0.7598,0.7598,0.7598,0,0
2015-11-13,0.7302,0.7302,0.7105,0.7105,0,0
2015-11-16,0.7105,0.7105,0.6809,0.6908,0,0
2015-11-17,0.6809,0.6809,0.6612,0.6809,0,0
2015-11-18,0.6809,0.6809,0.671,0.671,0,0
2015-11-19,0.6612,0.6612,0.6612,0.6612,0,0
2015-11-20,0.6513,0.6612,0.6513,0.6612,0,0
2015-11-23,0.6612,0.671,0.6612,0.671,0,0
2015-11-24,0.671,0.6908,0.671,0.671,0,0
2015-11-25,0.6908,0.6908,0.6513,0.6612,0,0
2015-11-26,0.6612,0.671,0.6612,0.671,0,0
2015-11-27,0.6612,0.6612,0.6612,0.6612,0,0
2015-11-30,0.6612,0.6612,0.6612,0.6612,0,0
2015-12-01,0.6612,0.671,0.6513,0.671,0,0
2015-12-02,0.671,0.6809,0.6612,0.671,0,0
2015-12-03,0.6612,0.671,0.6612,0.6612,0,0
2015-12-04,0.6612,0.671,0.6414,0.671,0,0
2015-12-07,0.6513,0.6513,0.6513,0.6513,0,0
2015-12-08,0.6513,0.6513,0.6513,0.6513,0,0
2015-12-09,0.6612,0.6612,0.6513,0.6513,0,0
2015-12-10,0.6612,0.6612,0.6513,0.6612,0,0
2015-12-11,0.6612,0.6612,0.6612,0.6612,0,0
2015-12-14,0.671,0.671,0.6217,0.6513,0,0
2015-12-15,0.6414,0.6414,0.6414,0.6414,0,0
2015-12-16,0.6513,0.6513,0.6513,0.6513,0,0
2015-12-17,0.6316,0.6316,0.5921,0.6217,0,0
2015-12-18,0.602,0.6217,0.602,0.6217,0,0
2015-12-21,0.6118,0.6118,0.6118,0.6118,0,0
2015-12-22,0.6118,0.6118,0.602,0.602,0,0
2015-12-23,0.5921,0.602,0.5921,0.602,0,0
2015-12-28,0.5921,0.602,0.5921,0.5921,0,0
2015-12-29,0.6118,0.6118,0.6118,0.6118,0,0
2015-12-30,0.6118,0.6118,0.5921,0.5921,0,0
2016-01-04,0.5921,0.5921,0.5921,0.5921,0,0
2016-01-05,0.602,0.602,0.5921,0.5921,0,0
2016-01-07,0.5921,0.5921,0.5921,0.5921,0,0
2016-01-08,0.5921,0.5921,0.5921,0.5921,0,0
2016-01-11,0.5921,0.602,0.5921,0.602,0,0
2016-01-12,0.602,0.602,0.602,0.602,0,0
2016-01-13,0.602,0.6118,0.602,0.6118,0,0
2016-01-14,0.6118,0.6118,0.602,0.6118,0,0
2016-01-15,0.602,0.602,0.5921,0.5921,0,0
2016-01-18,0.5921,0.5921,0.5822,0.5822,0,0
2016-01-19,0.5822,0.5921,0.5822,0.5822,0,0
2016-01-20,0.5822,0.5822,0.5723,0.5723,0,0
2016-01-21,0.5723,0.5723,0.5723,0.5723,0,0
2016-01-22,0.5723,0.602,0.5723,0.602,0,0
2016-01-25,0.6118,0.6118,0.6118,0.6118,0,0
2016-01-26,0.602,0.602,0.602,0.602,0,0
2016-01-27,0.602,0.6118,0.602,0.6118,0,0
2016-01-28,0.6414,0.6414,0.6217,0.6217,0,0
2016-02-01,0.6217,0.6217,0.6217,0.6217,0,0
2016-02-02,0.6217,0.6217,0.6118,0.6217,0,0
2016-02-03,0.6217,0.6217,0.6118,0.6217,0,0
2016-02-04,0.6217,0.6217,0.6217,0.6217,0,0
2016-02-05,0.6217,0.6217,0.6217,0.6217,0,0
2016-02-08,0.6217,0.6217,0.6217,0.6217,0,0
2016-02-10,0.6217,0.6217,0.6217,0.6217,0,0
2016-02-11,0.6217,0.6217,0.6217,0.6217,0,0
2016-02-12,0.6217,0.6217,0.6217,0.6217,0,0
2016-02-15,0.6217,0.6217,0.6217,0.6217,0,0
2016-02-16,0.6217,0.6217,0.6217,0.6217,0,0
2016-02-17,0.6217,0.6217,0.6118,0.6118,0,0
2016-02-18,0.6118,0.6217,0.6118,0.6217,0,0
2016-02-19,0.6217,0.6414,0.6217,0.6414,0,0
2016-02-22,0.6414,0.6414,0.6217,0.6217,0,0
2016-02-23,0.6217,0.6217,0.6217,0.6217,0,0
2016-02-24,0.6414,0.6414,0.6316,0.6316,0,0
2016-02-25,0.6316,0.6316,0.6118,0.6118,0,0
2016-02-26,0.6217,0.6217,0.6217,0.6217,0,0
2016-02-29,0.6217,0.6217,0.6217,0.6217,0,0
2016-03-01,0.6217,0.6217,0.6118,0.6217,0,0
2016-03-04,0.6217,0.6217,0.6217,0.6217,0,0
2016-03-07,0.6316,0.6513,0.6316,0.6513,0,0
2016-03-08,0.6316,0.6316,0.6316,0.6316,0,0
2016-03-09,0.6316,0.6316,0.6316,0.6316,0,0
2016-03-10,0.6316,0.6316,0.6316,0.6316,0,0
2016-03-11,0.6316,0.6316,0.6316,0.6316,0,0
2016-03-14,0.6316,0.6316,0.6217,0.6217,0,0
2016-03-15,0.6217,0.6217,0.6217,0.6217,0,0
2016-03-16,0.6217,0.6217,0.6217,0.6217,0,0
2016-03-17,0.6217,0.6217,0.6217,0.6217,0,0
2016-03-18,0.6217,0.6217,0.602,0.602,0,0
2016-03-21,0.602,0.602,0.5921,0.602,0,0
2016-03-22,0.602,0.602,0.5921,0.602,0,0
2016-03-23,0.602,0.6217,0.5921,0.6217,0,0
2016-03-24,0.6118,0.6316,0.6118,0.6316,0,0
2016-03-29,0.6414,0.6414,0.6217,0.6217,0,0
2016-03-30,0.6217,0.6316,0.6217,0.6316,0,0
2016-03-31,0.6316,0.6316,0.6118,0.6217,0,0
2016-04-01,0.6118,0.6118,0.6118,0.6118,0,0
2016-04-04,0.6217,0.6316,0.6217,0.6316,0,0
2016-04-05,0.6316,0.6316,0.6316,0.6316,0,0
2016-04-06,0.6316,0.6316,0.6217,0.6217,0,0
2016-04-07,0.6316,0.6316,0.6118,0.6118,0,0
2016-04-08,0.6118,0.6118,0.602,0.602,0,0
2016-04-11,0.602,0.6118,0.5723,0.6118,0,0
2016-04-12,0.6118,0.6118,0.6118,0.6118,0,0
2016-04-13,0.6118,0.6217,0.6118,0.6217,0,0
2016-04-14,0.6217,0.6217,0.6217,0.6217,0,0
2016-04-15,0.6217,0.6217,0.6217,0.6217,0,0
2016-04-18,0.6316,0.6316,0.6316,0.6316,0,0
2016-04-19,0.6217,0.6316,0.6217,0.6217,0,0
2016-04-20,0.6217,0.6217,0.6118,0.6118,0,0
2016-04-21,0.6118,0.6118,0.6118,0.6118,0,0
2016-04-22,0.6118,0.671,0.6118,0.6612,0,0
2016-04-25,0.6612,0.6612,0.6612,0.6612,0,0
2016-04-26,0.6809,0.6809,0.6809,0.6809,0,0
2016-04-27,0.6809,0.6809,0.671,0.6809,0,0
2016-04-28,0.671,0.6809,0.671,0.6809,0,0
2016-04-29,0.671,0.671,0.6612,0.671,0,0
2016-05-02,0.671,0.6809,0.671,0.6809,0,0
2016-05-04,0.6809,0.6809,0.6809,0.6809,0,0
2016-05-05,0.6809,0.6809,0.6809,0.6809,0,0
2016-05-06,0.6809,0.6809,0.6809,0.6809,0,0
2016-05-09,0.6908,0.6908,0.6908,0.6908,0,0
2016-05-10,0.6908,0.7105,0.6908,0.7105,0,0
2016-05-11,0.7105,0.7105,0.7105,0.7105,0,0
2016-05-12,0.7105,0.7105,0.7006,0.7105,0,0
2016-05-13,0.7105,0.7105,0.6809,0.7006,0,0
2016-05-16,0.6809,0.6908,0.6612,0.671,0,0
2016-05-17,0.671,0.671,0.6513,0.671,0,0
2016-05-18,0.6809,0.6809,0.671,0.671,0,0
2016-05-19,0.671,0.671,0.671,0.671,0,0
2016-05-20,0.671,0.671,0.671,0.671,0,0
2016-05-23,0.6612,0.6612,0.6513,0.6612,0,0
2016-05-24,0.6612,0.6612,0.6612,0.6612,0,0
2016-05-25,0.6612,0.6612,0.6612,0.6612,0,0
2016-05-27,0.6612,0.6612,0.6612,0.6612,0,0
2016-05-30,0.6612,0.6612,0.6612,0.6612,0,0
2016-05-31,0.6612,0.6612,0.6612,0.6612,0,0
2016-06-01,0.6612,0.6612,0.6316,0.6513,0,0
2016-06-02,0.6513,0.6513,0.6513,0.6513,0,0
2016-06-03,0.6513,0.6513,0.6118,0.6217,0,0
2016-06-06,0.6217,0.6217,0.6118,0.6118,0,0
2016-06-07,0.6118,0.6118,0.5921,0.602,0,0
2016-06-08,0.602,0.6118,0.5921,0.602,0,0
2016-06-09,0.602,0.602,0.602,0.602,0,0
2016-06-10,0.602,0.6118,0.602,0.6118,0,0
2016-06-13,0.602,0.602,0.602,0.602,0,0
2016-06-14,0.5822,0.5822,0.5723,0.5723,0,0
2016-06-15,0.5723,0.5723,0.5625,0.5625,0,0
2016-06-16,0.5625,0.5625,0.5625,0.5625,0,0
2016-06-17,0.5625,0.5625,0.5526,0.5526,0,0
2016-06-20,0.5625,0.5625,0.5526,0.5526,0,0
2016-06-21,0.5625,0.5625,0.5526,0.5526,0,0
2016-06-22,0.5526,0.5526,0.5526,0.5526,0,0
2016-06-23,0.5526,0.5625,0.5526,0.5625,0,0
2016-06-24,0.523,0.5723,0.5033,0.5723,0,0
2016-06-27,0.5625,0.5625,0.5526,0.5625,0,0
2016-06-28,0.5625,0.5723,0.5625,0.5723,0,0
2016-06-29,0.63,0.63,0.58,0.59,0,0
2016-06-30,0.59,0.59,0.59,0.59,0,0
2016-07-01,0.59,0.61,0.59,0.61,0,0
2016-07-04,0.61,0.61,0.61,0.61,0,0
2016-07-05,0.61,0.61,0.61,0.61,0,0
2016-07-06,0.61,0.61,0.59,0.59,0,0
2016-07-07,0.6,0.6,0.6,0.6,0,0
2016-07-08,0.6,0.6,0.6,0.6,0,0
2016-07-11,0.6,0.6,0.6,0.6,0,0
2016-07-12,0.6,0.6,0.6,0.6,0,0
2016-07-13,0.6,0.63,0.6,0.63,0,0
2016-07-14,0.63,0.63,0.61,0.61,0,0
2016-07-15,0.6,0.61,0.6,0.6,0,0
2016-07-18,0.6,0.6,0.59,0.59,0,0
2016-07-19,0.59,0.59,0.59,0.59,0,0
2016-07-20,0.59,0.59,0.59,0.59,0,0
2016-07-21,0.58,0.58,0.58,0.58,0,0
2016-07-22,0.58,0.58,0.57,0.58,0,0
2016-07-25,0.57,0.58,0.57,0.58,0,0
2016-07-26,0.57,0.58,0.57,0.58,0,0
2016-07-27,0.58,0.59,0.58,0.59,0,0
2016-07-28,0.58,0.58,0.57,0.58,0,0
2016-07-29,0.58,0.58,0.58,0.58,0,0
2016-08-01,0.59,0.59,0.58,0.58,0,0
2016-08-02,0.58,0.59,0.57,0.59,0,0
2016-08-03,0.58,0.58,0.56,0.58,0,0
2016-08-04,0.58,0.58,0.58,0.58,0,0
2016-08-05,0.58,0.58,0.56,0.56,0,0
2016-08-08,0.56,0.56,0.56,0.56,0,0
2016-08-09,0.56,0.56,0.56,0.56,0,0
2016-08-10,0.56,0.56,0.56,0.56,0,0
2016-08-11,0.56,0.57,0.56,0.57,0,0
2016-08-12,0.57,0.59,0.57,0.59,0,0
2016-08-16,0.59,0.6,0.59,0.6,0,0
2016-08-17,0.6,0.61,0.6,0.61,0,0
2016-08-18,0.6,0.6,0.59,0.59,0,0
2016-08-19,0.59,0.59,0.59,0.59,0,0
2016-08-24,0.59,0.59,0.59,0.59,0,0
2016-08-25,0.59,0.59,0.59,0.59,0,0
2016-08-26,0.59,0.59,0.57,0.57,0,0
2016-08-30,0.59,0.59,0.59,0.59,0,0
2016-08-31,0.59,0.59,0.59,0.59,0,0
2016-09-01,0.59,0.59,0.58,0.58,0,0
2016-09-02,0.58,0.58,0.56,0.56,0,0
2016-09-05,0.56,0.56,0.55,0.55,0,0
2016-09-06,0.56,0.56,0.54,0.55,0,0
2016-09-07,0.55,0.56,0.55,0.56,0,0
2016-09-08,0.56,0.56,0.56,0.56,0,0
2016-09-09,0.56,0.56,0.54,0.55,0,0
2016-09-12,0.54,0.54,0.54,0.54,0,0
2016-09-13,0.54,0.54,0.52,0.54,0,0
2016-09-14,0.52,0.52,0.52,0.52,0,0
2016-09-15,0.53,0.53,0.53,0.53,0,0
2016-09-16,0.53,0.53,0.53,0.53,0,0
2016-09-19,0.53,0.54,0.52,0.54,0,0
2016-09-20,0.52,0.53,0.52,0.53,0,0
2016-09-21,0.53,0.53,0.53,0.53,0,0
2016-09-22,0.53,0.53,0.53,0.53,0,0
2016-09-23,0.53,0.53,0.51,0.52,0,0
2016-09-26,0.52,0.52,0.52,0.52,0,0
2016-09-27,0.51,0.52,0.51,0.52,0,0
2016-09-28,0.51,0.52,0.51,0.52,0,0
2016-09-29,0.52,0.52,0.52,0.52,0,0
2016-09-30,0.52,0.52,0.52,0.52,0,0
2016-10-03,0.52,0.52,0.52,0.52,0,0
2016-10-04,0.52,0.52,0.52,0.52,0,0
2016-10-05,0.52,0.52,0.52,0.52,0,0
2016-10-06,0.52,0.52,0.52,0.52,0,0
2016-10-07,0.52,0.52,0.51,0.52,0,0
2016-10-10,0.51,0.52,0.51,0.52,0,0
2016-10-11,0.52,0.52,0.51,0.51,0,0
2016-10-12,0.51,0.51,0.5,0.5,0,0
2016-10-13,0.5,0.5,0.5,0.5,0,0
2016-10-14,0.5,0.5,0.5,0.5,0,0
2016-10-17,0.5,0.5,0.46,0.5,0,0
2016-10-21,0.51,0.51,0.5,0.5,0,0
2016-10-24,0.5,0.5,0.5,0.5,0,0
2016-10-25,0.51,0.51,0.5,0.5,0,0
2016-10-26,0.5,0.5,0.5,0.5,0,0
2016-10-27,0.49,0.5,0.49,0.5,0,0
2016-10-31,0.5,0.5,0.48,0.5,0,0
2016-11-03,0.49,0.5,0.47,0.47,0,0
2016-11-04,0.5,0.5,0.47,0.5,0,0
2016-11-09,0.49,0.5,0.49,0.5,0,0
2016-11-10,0.48,0.51,0.48,0.51,0,0
2016-11-14,0.49,0.53,0.49,0.53,0,0
2016-11-15,0.51,0.53,0.51,0.53,0,0
2016-11-16,0.53,0.53,0.53,0.53,0,0
2016-11-17,0.53,0.53,0.51,0.52,0,0
2016-11-18,0.52,0.52,0.52,0.52,0,0
2016-11-21,0.51,0.52,0.5,0.52,0,0
2016-11-22,0.52,0.52,0.52,0.52,0,0
2016-11-23,0.52,0.52,0.52,0.52,0,0
2016-11-24,0.52,0.52,0.52,0.52,0,0
2016-11-25,0.52,0.52,0.49,0.51,0,0
2016-11-28,0.51,0.52,0.49,0.51,0,0
2016-11-29,0.51,0.51,0.5,0.51,0,0
2016-11-30,0.51,0.51,0.51,0.51,0,0
2016-12-01,0.5,0.51,0.49,0.51,0,0
2016-12-02,0.5,0.52,0.5,0.52,0,0
2016-12-05,0.52,0.52,0.5,0.52,0,0
2016-12-06,0.52,0.52,0.52,0.52,0,0
2016-12-07,0.52,0.52,0.49,0.51,0,0
2016-12-08,0.51,0.52,0.49,0.52,0,0
2016-12-09,0.52,0.54,0.51,0.51,0,0
2016-12-12,0.51,0.52,0.51,0.52,0,0
2016-12-13,0.51,0.52,0.51,0.52,0,0
2016-12-14,0.52,0.52,0.51,0.51,0,0
2016-12-15,0.52,0.52,0.51,0.51,0,0
2016-12-16,0.51,0.51,0.49,0.5,0,0
2016-12-19,0.5,0.5,0.48,0.49,0,0
2016-12-20,0.49,0.49,0.48,0.48,0,0
2016-12-21,0.48,0.48,0.45,0.47,0,0
2016-12-22,0.47,0.47,0.45,0.45,0,0
2016-12-23,0.45,0.46,0.43,0.46,0,0
2016-12-27,0.44,0.46,0.44,0.45,0,0
2016-12-28,0.45,0.45,0.44,0.45,0,0
2016-12-29,0.45,0.45,0.45,0.45,0,0
2016-12-30,0.45,0.48,0.45,0.48,0,0
2017-01-02,0.49,0.49,0.46,0.47,0,0
2017-01-03,0.47,0.47,0.47,0.47,0,0
2017-01-04,0.47,0.48,0.46,0.46,0,0
2017-01-05,0.46,0.47,0.46,0.46,0,0
2017-01-09,0.47,0.47,0.46,0.46,0,0
2017-01-10,0.46,0.46,0.45,0.46,0,0
2017-01-11,0.46,0.46,0.45,0.46,0,0
2017-01-12,0.46,0.46,0.45,0.46,0,0
2017-01-13,0.46,0.46,0.45,0.46,0,0
2017-01-16,0.46,0.46,0.45,0.45,0,0
2017-01-17,0.45,0.45,0.45,0.45,0,0
2017-01-18,0.45,0.45,0.43,0.45,0,0
2017-01-19,0.44,0.45,0.44,0.45,0,0
2017-01-20,0.45,0.45,0.45,0.45,0,0
2017-01-23,0.45,0.45,0.45,0.45,0,0
2017-01-24,0.45,0.45,0.45,0.45,0,0
2017-01-25,0.45,0.46,0.45,0.46,0,0
2017-01-26,0.46,0.47,0.45,0.47,0,0
2017-01-27,0.47,0.47,0.44,0.46,0,0
2017-01-30,0.46,0.46,0.46,0.46,0,0
2017-01-31,0.46,0.46,0.46,0.46,0,0
2017-02-01,0.46,0.46,0.45,0.45,0,0
2017-02-02,0.45,0.46,0.45,0.46,0,0
2017-02-03,0.46,0.46,0.45,0.46,0,0
2017-02-06,0.46,0.46,0.44,0.44,0,0
2017-02-07,0.45,0.45,0.44,0.44,0,0
2017-02-08,0.45,0.45,0.43,0.44,0,0
2017-02-09,0.43,0.44,0.42,0.42,0,0
2017-02-10,0.43,0.43,0.43,0.43,0,0
2017-02-13,0.44,0.44,0.43,0.43,0,0
2017-02-14,0.44,0.44,0.43,0.43,0,0
2017-02-15,0.43,0.43,0.43,0.43,0,0
2017-02-16,0.43,0.43,0.43,0.43,0,0
2017-02-17,0.44,0.44,0.44,0.44,0,0
2017-02-20,0.43,0.43,0.42,0.43,0,0
2017-02-21,0.42,0.43,0.42,0.43,0,0
2017-02-22,0.43,0.45,0.43,0.44,0,0
2017-02-23,0.44,0.45,0.44,0.44,0,0
2017-02-24,0.44,0.44,0.44,0.44,0,0
2017-02-27,0.44,0.44,0.44,0.44,0,0
2017-02-28,0.44,0.45,0.44,0.44,0,0
2017-03-01,0.45,0.45,0.43,0.43,0,0
2017-03-02,0.44,0.44,0.43,0.44,0,0
2017-03-03,0.43,0.44,0.43,0.44,0,0
2017-03-06,0.44,0.45,0.44,0.44,0,0
2017-03-07,0.45,0.45,0.44,0.44,0,0
2017-03-08,0.44,0.45,0.44,0.45,0,0
2017-03-09,0.45,0.45,0.43,0.43,0,0
2017-03-10,0.43,0.44,0.43,0.44,0,0
2017-03-13,0.44,0.44,0.43,0.43,0,0
2017-03-14,0.44,0.44,0.43,0.43,0,0
2017-03-15,0.43,0.43,0.43,0.43,0,0
2017-03-16,0.44,0.44,0.43,0.43,0,0
2017-03-17,0.43,0.43,0.42,0.43,0,0
2017-03-20,0.42,0.44,0.41,0.44,0,0
2017-03-21,0.45,0.49,0.45,0.49,0,0
2017-03-22,0.48,0.48,0.46,0.48,0,0
2017-03-23,0.48,0.48,0.46,0.48,0,0
2017-03-24,0.48,0.48,0.48,0.48,0,0
2017-03-27,0.48,0.51,0.47,0.51,0,0
2017-03-28,0.51,0.52,0.49,0.49,0,0
2017-03-29,0.49,0.49,0.49,0.49,0,0
2017-03-30,0.49,0.5,0.49,0.5,0,0
2017-03-31,0.51,0.51,0.49,0.5,0,0
2017-04-03,0.5,0.5,0.5,0.5,0,0
2017-04-04,0.5,0.52,0.49,0.51,0,0
2017-04-05,0.51,0.57,0.49,0.57,0,0
2017-04-06,0.58,0.58,0.55,0.57,0,0
2017-04-07,0.57,0.58,0.56,0.56,0,0
2017-04-10,0.58,0.58,0.55,0.55,0,0
2017-04-11,0.54,0.54,0.53,0.54,0,0
2017-04-12,0.53,0.54,0.51,0.54,0,0
2017-04-13,0.54,0.54,0.52,0.53,0,0
2017-04-18,0.53,0.53,0.51,0.53,0,0
2017-04-19,0.52,0.54,0.52,0.54,0,0
2017-04-20,0.55,0.55,0.53,0.54,0,0
2017-04-21,0.53,0.54,0.52,0.54,0,0
2017-04-24,0.53,0.55,0.53,0.55,0,0
2017-04-25,0.55,0.55,0.55,0.55,0,0
2017-04-26,0.53,0.55,0.53,0.55,0,0
2017-04-27,0.55,0.56,0.55,0.56,0,0
2017-04-28,0.55,0.56,0.55,0.56,0,0
2017-05-02,0.56,0.56,0.55,0.55,0,0
2017-05-04,0.55,0.55,0.51,0.53,0,0
2017-05-05,0.53,0.53,0.5,0.53,0,0
2017-05-08,0.53,0.53,0.51,0.51,0,0
2017-05-09,0.52,0.52,0.52,0.52,0,0
2017-05-10,0.53,0.53,0.53,0.53,0,0
2017-05-11,0.53,0.53,0.51,0.51,0,0
2017-05-12,0.51,0.53,0.51,0.53,0,0
2017-05-15,0.53,0.53,0.53,0.53,0,0
2017-05-16,0.53,0.53,0.53,0.53,0,0
2017-05-17,0.53,0.53,0.53,0.53,0,0
2017-05-19,0.52,0.53,0.52,0.53,0,0
2017-05-22,0.53,0.53,0.52,0.52,0,0
2017-05-23,0.53,0.53,0.53,0.53,0,0
2017-05-24,0.53,0.53,0.53,0.53,0,0
2017-05-25,0.53,0.53,0.53,0.53,0,0
2017-05-26,0.53,0.53,0.53,0.53,0,0
2017-05-29,0.53,0.53,0.53,0.53,0,0
2017-05-30,0.53,0.53,0.52,0.52,0,0
2017-05-31,0.52,0.52,0.52,0.52,0,0
2017-06-01,0.53,0.53,0.53,0.53,0,0
2017-06-02,0.53,0.53,0.53,0.53,0,0
2017-06-05,0.53,0.53,0.52,0.52,0,0
2017-06-06,0.53,0.53,0.53,0.53,0,0
2017-06-07,0.53,0.53,0.51,0.53,0,0
2017-06-08,0.53,0.53,0.53,0.53,0,0
2017-06-09,0.53,0.53,0.53,0.53,0,0
2017-06-12,0.53,0.53,0.53,0.53,0,0
2017-06-13,0.53,0.53,0.53,0.53,0,0
2017-06-14,0.53,0.53,0.51,0.52,0,0
2017-06-16,0.52,0.52,0.52,0.52,0,0
2017-06-19,0.51,0.52,0.51,0.52,0,0
2017-06-22,0.51,0.51,0.51,0.51,0,0
2017-06-23,0.51,0.51,0.49,0.5,0,0
2017-06-26,0.5,0.5,0.49,0.5,0,0
2017-06-27,0.5,0.5,0.5,0.5,0,0
2017-06-28,0.5,0.52,0.5,0.52,0,0
2017-06-30,0.52,0.52,0.52,0.52,0,0
2017-07-03,0.52,0.54,0.52,0.54,0,0
2017-07-04,0.54,0.54,0.54,0.54,0,0
2017-07-05,0.53,0.53,0.53,0.53,0,0
2017-07-06,0.53,0.53,0.52,0.52,0,0
2017-07-07,0.53,0.53,0.53,0.53,0,0
2017-07-10,0.53,0.53,0.53,0.53,0,0
2017-07-11,0.53,0.53,0.48,0.51,0,0
2017-07-12,0.48,0.51,0.48,0.51,0,0
2017-07-13,0.49,0.51,0.49,0.51,0,0
2017-07-14,0.51,0.51,0.5,0.5,0,0
2017-07-17,0.51,0.51,0.51,0.51,0,0
2017-07-18,0.5,0.51,0.5,0.51,0,0
2017-07-20,0.51,0.51,0.51,0.51,0,0
2017-07-21,0.51,0.51,0.51,0.51,0,0
2017-07-24,0.51,0.51,0.51,0.51,0,0
2017-07-25,0.51,0.51,0.51,0.51,0,0
2017-07-28,0.51,0.51,0.5,0.5,0,0
2017-07-31,0.49,0.49,0.49,0.49,0,0
2017-08-02,0.49,0.49,0.49,0.49,0,0
2017-08-04,0.49,0.49,0.49,0.49,0,0
2017-08-08,0.49,0.49,0.49,0.49,0,0
2017-08-09,0.49,0.49,0.48,0.48,0,0
2017-08-10,0.48,0.51,0.48,0.49,0,0
2017-08-11,0.48,0.51,0.48,0.51,0,0
2017-08-14,0.51,0.51,0.51,0.51,0,0
2017-08-16,0.5,0.5,0.5,0.5,0,0
2017-08-17,0.5,0.5,0.48,0.48,0,0
2017-08-18,0.5,0.5,0.46,0.49,0,0
2017-08-21,0.49,0.49,0.46,0.48,0,0
2017-08-22,0.48,0.48,0.47,0.47,0,0
2017-08-24,0.47,0.5,0.44,0.5,0,0
2017-08-25,0.5,0.56,0.5,0.56,0,0
2017-08-28,0.53,0.56,0.53,0.56,0,0
2017-08-29,0.55,0.55,0.55,0.55,0,0
2017-08-30,0.55,0.55,0.53,0.55,0,0
2017-08-31,0.55,0.55,0.54,0.55,0,0
2017-09-01,0.53,0.55,0.52,0.55,0,0
2017-09-07,0.55,0.55,0.52,0.55,0,0
2017-09-08,0.55,0.55,0.55,0.55,0,0
2017-09-11,0.55,0.55,0.55,0.55,0,0
2017-09-12,0.55,0.55,0.55,0.55,0,0
2017-09-13,0.55,0.55,0.53,0.55,0,0
2017-09-14,0.54,0.55,0.54,0.55,0,0
2017-09-15,0.54,0.55,0.54,0.55,0,0
2017-09-18,0.55,0.56,0.55,0.56,0,0
2017-09-19,0.55,0.55,0.55,0.55,0,0
2017-09-20,0.54,0.54,0.54,0.54,0,0
2017-09-21,0.53,0.55,0.53,0.55,0,0
2017-09-22,0.56,0.56,0.56,0.56,0,0
2017-09-25,0.56,0.56,0.56,0.56,0,0
2017-09-26,0.56,0.56,0.54,0.55,0,0
2017-09-27,0.56,0.56,0.56,0.56,0,0
2017-09-28,0.56,0.56,0.56,0.56,0,0
2017-09-29,0.57,0.57,0.57,0.57,0,0
2017-10-02,0.57,0.57,0.55,0.57,0,0
2017-10-03,0.56,0.57,0.53,0.57,0,0
2017-10-04,0.57,0.57,0.56,0.56,0,0
2017-10-05,0.56,0.56,0.56,0.56,0,0
2017-10-06,0.55,0.56,0.54,0.56,0,0
2017-10-09,0.56,0.56,0.56,0.56,0,0
2017-10-10,0.55,0.56,0.53,0.56,0,0
2017-10-11,0.56,0.56,0.56,0.56,0,0
2017-10-12,0.56,0.56,0.56,0.56,0,0
2017-10-13,0.56,0.56,0.54,0.54,0,0
2017-10-16,0.56,0.56,0.54,0.56,0,0
2017-10-17,0.56,0.56,0.56,0.56,0,0
2017-10-18,0.54,0.55,0.54,0.55,0,0
2017-10-19,0.55,0.55,0.55,0.55,0,0
2017-10-20,0.53,0.55,0.53,0.55,0,0
2017-10-23,0.55,0.55,0.52,0.54,0,0
2017-10-24,0.55,0.55,0.55,0.55,0,0
2017-10-25,0.54,0.54,0.54,0.54,0,0
2017-10-26,0.54,0.54,0.54,0.54,0,0
2017-10-27,0.54,0.54,0.53,0.53,0,0
2017-10-30,0.53,0.54,0.53,0.54,0,0
2017-10-31,0.55,0.55,0.53,0.55,0,0
2017-11-07,0.55,0.56,0.54,0.56,0,0
2017-11-09,0.55,0.56,0.52,0.56,0,0
2017-11-10,0.55,0.56,0.55,0.56,0,0
2017-11-13,0.55,0.56,0.55,0.56,0,0
2017-11-14,0.54,0.56,0.53,0.56,0,0
2017-11-15,0.57,0.57,0.55,0.57,0,0
2017-11-16,0.57,0.57,0.57,0.57,0,0
2017-11-17,0.56,0.57,0.54,0.56,0,0
2017-11-20,0.56,0.56,0.53,0.53,0,0
2017-11-21,0.53,0.53,0.52,0.53,0,0
2017-11-22,0.53,0.53,0.51,0.52,0,0
2017-11-23,0.52,0.52,0.51,0.51,0,0
2017-11-24,0.51,0.53,0.51,0.51,0,0
2017-11-27,0.52,0.52,0.52,0.52,0,0
2017-11-29,0.52,0.52,0.49,0.51,0,0
2017-11-30,0.5,0.51,0.5,0.51,0,0
2017-12-01,0.51,0.51,0.49,0.49,0,0
2017-12-04,0.49,0.49,0.48,0.48,0,0
2017-12-05,0.48,0.48,0.48,0.48,0,0
2017-12-06,0.47,0.47,0.46,0.46,0,0
2017-12-07,0.46,0.46,0.44,0.44,0,0
2017-12-08,0.44,0.47,0.43,0.46,0,0
2017-12-11,0.45,0.46,0.44,0.45,0,0
2017-12-12,0.45,0.46,0.45,0.45,0,0
2017-12-13,0.45,0.46,0.44,0.46,0,0
2017-12-14,0.47,0.47,0.45,0.45,0,0
2017-12-15,0.45,0.45,0.44,0.44,0,0
2017-12-18,0.44,0.47,0.44,0.47,0,0
2017-12-19,0.47,0.47,0.45,0.45,0,0
2017-12-20,0.45,0.48,0.45,0.47,0,0
2017-12-21,0.46,0.48,0.46,0.47,0,0
2017-12-22,0.47,0.5,0.47,0.49,0,0
2017-12-27,0.47,0.49,0.47,0.49,0,0
2017-12-28,0.49,0.49,0.48,0.48,0,0
2017-12-29,0.48,0.48,0.48,0.48,0,0
2018-01-03,0.5,0.5,0.5,0.5,0,0
2018-01-04,0.49,0.51,0.49,0.51,0,0
2018-01-05,0.51,0.52,0.49,0.52,0,0
2018-01-08,0.54,0.54,0.51,0.53,0,0
2018-01-09,0.51,0.53,0.49,0.53,0,0
2018-01-10,0.53,0.53,0.49,0.49,0,0
2018-01-11,0.49,0.49,0.48,0.48,0,0
2018-01-12,0.49,0.49,0.49,0.49,0,0
2018-01-15,0.49,0.49,0.49,0.49,0,0
2018-01-16,0.48,0.49,0.48,0.48,0,0
2018-01-17,0.49,0.49,0.49,0.49,0,0
2018-01-18,0.48,0.49,0.48,0.48,0,0
2018-01-19,0.48,0.48,0.48,0.48,0,0
2018-01-22,0.49,0.49,0.48,0.48,0,0
2018-01-23,0.48,0.48,0.48,0.48,0,0
2018-01-25,0.49,0.49,0.49,0.49,0,0
2018-01-30,0.48,0.48,0.47,0.48,0,0
2018-02-01,0.49,0.5,0.47,0.49,0,0
2018-02-05,0.48,0.49,0.47,0.49,0,0
2018-02-06,0.46,0.47,0.46,0.47,0,0
2018-02-07,0.46,0.48,0.46,0.48,0,0
2018-02-09,0.47,0.48,0.47,0.47,0,0
2018-02-12,0.47,0.5,0.47,0.5,0,0
2018-02-13,0.5,0.5,0.47,0.47,0,0
2018-02-14,0.48,0.49,0.48,0.49,0,0
2018-02-15,0.49,0.49,0.49,0.49,0,0
2018-02-16,0.49,0.49,0.49,0.49,0,0
2018-02-19,0.49,0.49,0.49,0.49,0,0
2018-02-20,0.49,0.49,0.49,0.49,0,0
2018-02-21,0.49,0.49,0.48,0.48,0,0
2018-02-26,0.47,0.5,0.47,0.5,0,0
2018-02-27,0.5,0.5,0.5,0.5,0,0
2018-03-06,0.49,0.5,0.49,0.49,0,0
2018-03-07,0.5,0.5,0.49,0.5,0,0
2018-03-08,0.5,0.5,0.49,0.49,0,0
2018-03-09,0.49,0.49,0.49,0.49,0,0
2018-03-12,0.5,0.5,0.5,0.5,0,0
2018-03-14,0.49,0.49,0.49,0.49,0,0
2018-03-15,0.48,0.48,0.48,0.48,0,0
2018-03-19,0.49,0.49,0.48,0.48,0,0
2018-03-20,0.47,0.47,0.47,0.47,0,0
2018-03-21,0.47,0.48,0.47,0.48,0,0
2018-03-22,0.48,0.48,0.48,0.48,0,0
2018-03-23,0.48,0.48,0.48,0.48,0,0
2018-03-26,0.46,0.48,0.46,0.48,0,0
2018-03-27,0.48,0.48,0.48,0.48,0,0
2018-03-28,0.48,0.48,0.48,0.48,0,0
2018-03-29,0.48,0.48,0.48,0.48,0,0
