Date,Open,High,Low,Close,Volume,OpenInt
2009-01-07,62.364,62.364,62.364,62.364,0,0
2009-01-08,60.224,61.17,60.224,61.17,0,0
2009-01-12,60.735,65.092,60.735,61.426,0,0
2009-01-13,59.967,64.835,59.967,64.835,0,0
2009-01-14,64.835,66.549,61.937,65.697,0,0
2009-01-15,63.216,65.697,63.216,63.216,0,0
2009-01-16,61.682,64.75,61.682,62.364,0,0
2009-01-19,66.124,66.124,66.124,66.124,0,0
2009-01-20,61.511,63.556,60.308,63.556,0,0
2009-01-21,63.642,63.642,61.075,61.075,0,0
2009-01-22,60.649,62.364,60.649,62.364,0,0
2009-01-23,63.472,63.472,59.882,63.216,0,0
2009-01-26,63.472,63.472,58.774,59.627,0,0
2009-01-27,59.627,59.627,58.348,59.285,0,0
2009-01-28,59.627,59.627,59.285,59.627,0,0
2009-01-29,58.945,58.945,58.945,58.945,0,0
2009-01-30,58.263,58.263,57.58,58.092,0,0
2009-02-02,58.945,58.945,50.488,53.737,0,0
2009-02-03,53.82,53.82,51.255,51.255,0,0
2009-02-04,51.255,51.255,48.698,49.72,0,0
2009-02-05,46.131,50.402,43.565,49.038,0,0
2009-02-06,49.038,58.859,49.038,52.363,0,0
2009-02-09,49.55,52.712,49.55,52.712,0,0
2009-02-10,53.991,55.782,51.255,55.782,0,0
2009-02-11,57.069,58.859,55.526,55.867,0,0
2009-02-12,57.24,57.24,57.24,57.24,0,0
2009-02-13,57.24,57.837,57.24,57.837,0,0
2009-02-16,56.378,57.24,51.255,51.255,0,0
2009-02-17,49.55,49.55,46.301,46.301,0,0
2009-02-18,45.193,45.193,44.256,45.108,0,0
2009-02-19,46.216,46.216,46.046,46.046,0,0
2009-02-20,46.046,46.046,46.046,46.046,0,0
2009-02-23,43.991,46.046,43.991,45.876,0,0
2009-02-24,46.046,50.402,42.712,50.402,0,0
2009-02-25,49.038,54.674,49.038,51.255,0,0
2009-02-26,51.68,53.737,51.68,53.737,0,0
2009-02-27,51.255,52.969,51.255,52.969,0,0
2009-03-02,51.851,51.851,51.596,51.596,0,0
2009-03-03,49.55,49.891,48.698,49.38,0,0
2009-03-04,48.177,51.169,48.177,51.169,0,0
2009-03-05,51.51,53.395,50.402,53.395,0,0
2009-03-06,52.107,53.395,48.698,53.395,0,0
2009-03-09,50.402,50.402,50.402,50.402,0,0
2009-03-10,50.488,50.488,50.488,50.488,0,0
2009-03-11,50.488,51.255,50.488,51.255,0,0
2009-03-12,50.488,51.255,50.488,51.255,0,0
2009-03-13,50.402,58.007,50.402,58.007,0,0
2009-03-16,52.277,55.952,52.277,54.674,0,0
2009-03-17,58.007,58.007,56.378,56.378,0,0
2009-03-18,58.007,58.007,57.41,57.666,0,0
2009-03-19,57.496,58.945,57.496,58.945,0,0
2009-03-20,59.627,59.627,59.627,59.627,0,0
2009-03-23,60.224,63.216,59.371,63.216,0,0
2009-03-24,63.472,63.813,63.216,63.216,0,0
2009-03-25,64.067,64.067,62.79,62.79,0,0
2009-03-26,65.783,65.783,65.783,65.783,0,0
2009-03-27,65.783,65.783,64.921,64.921,0,0
2009-03-30,64.921,64.921,64.921,64.921,0,0
2009-03-31,64.921,64.921,64.921,64.921,0,0
2009-04-01,64.921,64.921,61.511,61.511,0,0
2009-04-02,62.364,65.783,61.511,65.783,0,0
2009-04-03,64.921,65.783,64.921,65.783,0,0
2009-04-06,65.783,66.208,65.783,66.038,0,0
2009-04-07,66.635,67.316,66.464,66.635,0,0
2009-04-08,66.635,67.487,66.124,67.487,0,0
2009-04-09,67.913,70.906,67.913,70.906,0,0
2009-04-14,70.906,70.906,67.913,67.913,0,0
2009-04-15,67.487,68.255,67.487,68.255,0,0
2009-04-16,66.891,70.906,66.891,70.821,0,0
2009-04-17,69.106,70.906,69.106,70.906,0,0
2009-04-20,70.481,70.481,66.635,67.061,0,0
2009-04-21,67.146,69.192,67.061,67.487,0,0
2009-04-22,67.487,73.037,67.487,73.037,0,0
2009-04-23,73.463,77.734,73.463,77.393,0,0
2009-04-24,78.511,80.131,77.393,79.874,0,0
2009-04-27,80.3,80.3,73.463,77.308,0,0
2009-04-28,80.642,105.09,80.642,98.237,0,0
2009-04-29,110.03,110.03,98.237,102.25,0,0
2009-04-30,102.42,102.42,98.661,100.8,0,0
2009-05-04,102.42,102.42,99.105,100.8,0,0
2009-05-05,102.6,104.14,102.51,102.51,0,0
2009-05-06,102.51,102.51,102.09,102.09,0,0
2009-05-07,102.16,102.16,98.237,100.8,0,0
2009-05-08,98.325,99.79,98.325,99.441,0,0
2009-05-11,100.71,103.37,100.71,103.37,0,0
2009-05-12,103.37,105.77,102.51,102.51,0,0
2009-05-13,102.51,102.51,97.816,97.816,0,0
2009-05-14,97.388,97.816,97.388,97.388,0,0
2009-05-15,98.325,98.325,94.828,94.828,0,0
2009-05-18,96.96,100.71,96.96,98.237,0,0
2009-05-19,100.8,100.8,100.8,100.8,0,0
2009-05-20,102.51,102.51,102.42,102.51,0,0
2009-05-21,99.95,103.29,98.325,103.19,0,0
2009-05-22,103.19,103.37,101.24,103.37,0,0
2009-05-25,104.56,104.56,102.51,103.37,0,0
2009-05-26,101.32,104.23,101.32,104.14,0,0
2009-05-27,104.38,104.38,102.68,102.68,0,0
2009-05-28,102.51,102.77,102.51,102.77,0,0
2009-05-29,103.55,103.79,103.01,103.79,0,0
2009-06-01,103.79,107.9,103.37,106.78,0,0
2009-06-02,109.09,109.68,106.78,106.78,0,0
2009-06-03,107.13,109.53,106.78,107.3,0,0
2009-06-04,108.07,109.77,107.3,109.77,0,0
2009-06-05,110.36,110.71,110.21,110.21,0,0
2009-06-08,110.21,111.05,109.35,111.05,0,0
2009-06-09,111.05,119.17,111.05,119.17,0,0
2009-06-10,119.59,123.86,119.59,123.7,0,0
2009-06-12,116.35,126.44,116.35,126.44,0,0
2009-06-15,119.68,122.16,117.88,122.16,0,0
2009-06-16,122.16,122.16,117.88,122.16,0,0
2009-06-17,124.64,124.64,118.74,123.44,0,0
2009-06-18,123.09,123.09,118.65,118.65,0,0
2009-06-19,116.18,116.18,110.21,112.26,0,0
2009-06-22,114.89,114.89,114.47,114.47,0,0
2009-06-23,106.78,113.62,106.78,111.05,0,0
2009-06-24,110.21,110.21,106.78,109.35,0,0
2009-06-25,109.35,111.91,109.35,109.35,0,0
2009-06-26,111.83,111.83,110.21,111.66,0,0
2009-06-29,111.83,111.83,108.91,108.91,0,0
2009-06-30,109.35,126.94,107.73,123.86,0,0
2009-07-01,119.59,126.35,119.59,126.35,0,0
2009-07-02,126.35,126.35,124.73,125.49,0,0
2009-07-03,125.58,125.58,119.59,122.68,0,0
2009-07-06,119.59,123.78,117.97,123.78,0,0
2009-07-07,119.59,124.64,117.88,121.05,0,0
2009-07-08,119.59,119.59,117.04,117.04,0,0
2009-07-09,119.59,122.59,117.04,121.31,0,0
2009-07-10,121.23,121.31,118.83,119.59,0,0
2009-07-13,123.7,123.7,121.31,121.31,0,0
2009-07-14,120.02,120.02,120.02,120.02,0,0
2009-07-15,119.59,119.59,115.33,119.59,0,0
2009-07-16,115.42,122.93,115.42,122.93,0,0
2009-07-17,120.02,120.11,120.02,120.11,0,0
2009-07-20,122.93,122.93,120.46,122.59,0,0
2009-07-21,122.59,127.28,122.59,124.73,0,0
2009-07-22,126.85,127.28,126.85,126.85,0,0
2009-07-23,126.94,126.94,123.86,126.85,0,0
2009-07-24,126.94,126.94,126.94,126.94,0,0
2009-07-27,126.94,126.94,121.73,126.01,0,0
2009-07-28,126.01,126.01,122.16,125.92,0,0
2009-07-29,120.11,125.92,120.11,125.92,0,0
2009-07-30,125.92,125.92,120.71,125.83,0,0
2009-07-31,123.86,123.86,121.73,121.73,0,0
2009-08-03,123.02,123.02,119.17,119.17,0,0
2009-08-04,119.59,123.86,119.17,120.46,0,0
2009-08-05,120.28,121.31,120.28,121.31,0,0
2009-08-06,121.31,123.86,121.31,123.86,0,0
2009-08-07,121.82,123.86,121.82,123.86,0,0
2009-08-10,125.15,125.83,123.86,125.83,0,0
2009-08-11,123.02,132.41,123.02,132.41,0,0
2009-08-12,131.56,132.41,126.44,131.56,0,0
2009-08-13,131.47,131.47,128.48,128.48,0,0
2009-08-14,131.47,131.47,128.14,128.57,0,0
2009-08-17,128.22,131.99,126.01,131.99,0,0
2009-08-18,131.99,132.41,126.09,132.41,0,0
2009-08-19,131.13,132.41,131.13,132.41,0,0
2009-08-20,135.82,143.51,133.27,143.51,0,0
2009-08-21,148.9,150.01,148.9,150.01,0,0
2009-08-24,150.35,150.35,142.24,142.74,0,0
2009-08-25,145.66,157.01,145.66,157.01,0,0
2009-08-26,161.45,171.63,157.01,166.58,0,0
2009-08-27,166.58,166.58,156.92,156.92,0,0
2009-08-28,162.32,170.77,157.19,170.77,0,0
2009-08-31,170.77,170.77,160.6,166.58,0,0
2009-09-01,166.58,171.54,162.73,166.58,0,0
2009-09-02,163.17,166.58,153.77,155.91,0,0
2009-09-03,155.91,155.91,152.92,153.77,0,0
2009-09-04,154.62,154.62,153.77,153.77,0,0
2009-09-07,150.35,150.35,149.49,149.59,0,0
2009-09-08,150.44,157.19,150.44,157.19,0,0
2009-09-09,161.45,161.45,157.19,157.19,0,0
2009-09-10,166.58,166.58,149.85,150.35,0,0
2009-09-11,150.35,151.89,147.18,147.18,0,0
2009-09-14,153.34,153.34,147.02,147.02,0,0
2009-09-15,147.02,152.32,147.02,152.32,0,0
2009-09-16,153.77,155.3,152.32,152.32,0,0
2009-09-17,153.77,154.62,152.32,154.62,0,0
2009-09-18,149.49,151.21,149.49,151.21,0,0
2009-09-21,153.77,153.77,151.21,153.77,0,0
2009-09-22,152.92,153.77,152.92,153.77,0,0
2009-09-23,150.35,150.35,150.35,150.35,0,0
2009-09-24,149.07,152.92,147.36,152.92,0,0
2009-09-25,150.35,150.35,147.79,147.79,0,0
2009-09-28,144.37,147.79,142.24,143.51,0,0
2009-09-29,140.96,140.96,140.96,140.96,0,0
2009-09-30,140.96,142.04,140.96,142.04,0,0
2009-10-01,138.6,142.04,137.83,137.91,0,0
2009-10-02,137.65,137.91,137.57,137.91,0,0
2009-10-05,137.91,137.91,137.91,137.91,0,0
2009-10-06,139.03,145.49,139.03,145.49,0,0
2009-10-07,146.35,150.22,146.35,147.2,0,0
2009-10-08,148.93,148.93,147.2,147.2,0,0
2009-10-09,150.66,153.14,147.2,152.72,0,0
2009-10-12,152.36,152.36,152.36,152.36,0,0
2009-10-13,152.46,154.87,152.36,154.87,0,0
2009-10-14,154.87,154.87,153.23,153.23,0,0
2009-10-15,154.96,154.96,154.09,154.87,0,0
2009-10-16,154.87,154.87,154.09,154.09,0,0
2009-10-19,154.09,154.87,150.66,154.09,0,0
2009-10-20,150.66,150.66,146.43,149.8,0,0
2009-10-21,138.6,148.93,138.6,143.76,0,0
2009-10-22,143.76,146.35,143.76,146.35,0,0
2009-10-23,143.08,143.08,143.08,143.08,0,0
2009-10-26,146.35,146.35,139.97,139.97,0,0
2009-10-27,137.74,138.77,137.74,138.77,0,0
2009-10-28,136.02,139.89,136.02,139.03,0,0
2009-10-29,136.46,139.03,136.46,138.86,0,0
2009-10-30,138.86,146.26,138.86,146.26,0,0
2009-11-02,146.35,146.35,143.76,143.76,0,0
2009-11-03,143.34,143.34,143.34,143.34,0,0
2009-11-04,143.34,144.63,143.34,144.63,0,0
2009-11-05,145.32,145.32,141.7,141.7,0,0
2009-11-06,143.42,143.42,138.6,138.6,0,0
2009-11-09,140.32,140.32,138.6,138.6,0,0
2009-11-10,141.1,141.1,136.87,137.74,0,0
2009-11-12,138.6,139.03,137.57,137.57,0,0
2009-11-13,136.02,137.74,136.02,137.74,0,0
2009-11-16,139.47,139.47,136.46,137.74,0,0
2009-11-17,136.02,136.02,136.02,136.02,0,0
2009-11-18,141.1,141.1,137.65,137.65,0,0
2009-11-19,137.74,137.74,137.65,137.65,0,0
2009-11-20,137.65,137.65,136.02,136.02,0,0
2009-11-23,137.74,137.74,137.74,137.74,0,0
2009-11-24,136.02,137.74,135.15,137.74,0,0
2009-11-25,137.74,137.74,137.74,137.74,0,0
2009-11-26,137.74,137.74,133.44,133.44,0,0
2009-11-27,137.65,137.65,129.99,129.99,0,0
2009-11-30,131.71,137.74,131.71,137.74,0,0
2009-12-01,137.74,137.74,137.65,137.65,0,0
2009-12-02,137.65,137.65,129.22,131.71,0,0
2009-12-03,135.5,137.65,133.87,133.87,0,0
2009-12-04,132.14,133.87,132.14,133.87,0,0
2009-12-07,133.01,133.87,133.01,133.87,0,0
2009-12-08,133.87,134.3,130.86,130.86,0,0
2009-12-09,131.71,131.71,128.71,128.71,0,0
2009-12-10,128.71,129.13,128.27,128.27,0,0
2009-12-11,131.2,131.2,127.41,128.88,0,0
2009-12-14,127.41,128.62,127.41,128.62,0,0
2009-12-15,127.85,127.85,123.54,125.7,0,0
2009-12-16,127.32,127.32,123.62,123.62,0,0
2009-12-17,127.41,127.41,118.38,122.16,0,0
2009-12-18,121.81,131.64,121.81,129.13,0,0
2009-12-21,132.58,136.02,129.13,134.99,0,0
2009-12-22,136.87,137.23,134.99,135.84,0,0
2009-12-23,137.65,137.65,131.36,131.36,0,0
2009-12-28,130.68,131.36,128.71,129.99,0,0
2009-12-29,134.73,137.65,129.99,136.87,0,0
2009-12-30,137.74,141.19,136.02,137.74,0,0
2009-12-31,139.47,139.47,133.44,133.44,0,0
2010-01-04,136.87,136.87,133.44,136.02,0,0
2010-01-05,137.57,137.74,136.46,136.46,0,0
2010-01-06,136.53,136.53,135.59,136.46,0,0
2010-01-07,135.59,135.84,134.56,135.84,0,0
2010-01-08,136.46,137.74,136.46,136.87,0,0
2010-01-11,139.47,139.47,136.02,137.74,0,0
2010-01-12,139.47,139.47,132.14,137.65,0,0
2010-01-13,137.4,137.4,135.93,135.93,0,0
2010-01-14,136.02,136.02,133.44,133.44,0,0
2010-01-15,133.61,138.18,133.44,138.18,0,0
2010-01-18,136.87,139.72,136.87,137.74,0,0
2010-01-19,139.47,139.89,137.31,139.89,0,0
2010-01-20,139.89,139.89,137.74,139.38,0,0
2010-01-21,139.89,139.89,135.59,137.31,0,0
2010-01-22,137.31,137.31,133.52,133.52,0,0
2010-01-25,134.3,137.91,134.3,134.81,0,0
2010-01-26,134.81,134.81,134.81,134.81,0,0
2010-01-27,137.65,137.65,134.81,134.81,0,0
2010-01-28,135.68,137.83,133.87,137.83,0,0
2010-01-29,137.74,137.74,137.74,137.74,0,0
2010-02-01,132.14,138.18,132.14,138.18,0,0
2010-02-02,137.74,137.74,137.74,137.74,0,0
2010-02-03,137.74,138.18,137.74,138.18,0,0
2010-02-04,138.18,138.18,133.44,133.44,0,0
2010-02-05,133.44,136.87,133.44,136.87,0,0
2010-02-08,136.87,136.87,133.52,136.02,0,0
2010-02-09,137.74,137.74,137.74,137.74,0,0
2010-02-10,137.74,139.03,134.3,139.03,0,0
2010-02-11,139.03,139.03,137.74,137.74,0,0
2010-02-12,138.08,138.08,137.74,138.08,0,0
2010-02-15,138.08,139.47,133.44,139.47,0,0
2010-02-16,140.32,141.19,140.32,141.19,0,0
2010-02-17,141.19,146.35,139.47,146.35,0,0
2010-02-18,149.36,151.95,149.36,149.36,0,0
2010-02-19,149.36,149.36,149.36,149.36,0,0
2010-02-22,151.52,151.52,146.79,148.33,0,0
2010-02-23,148.07,148.07,147.2,148.07,0,0
2010-02-24,150.22,154.53,145.49,150.66,0,0
2010-02-25,154.37,154.53,150.22,154.53,0,0
2010-02-26,146.43,154.53,146.43,154.53,0,0
2010-03-01,153.14,153.14,151.95,153.06,0,0
2010-03-02,144.63,153.68,144.63,153.06,0,0
2010-03-03,154.53,154.53,148.93,150.66,0,0
2010-03-04,148.93,156.24,148.93,154.96,0,0
2010-03-05,157.46,157.46,154.96,154.96,0,0
2010-03-08,154.96,160.13,149.36,160.13,0,0
2010-03-09,156.76,163.56,156.69,163.56,0,0
2010-03-10,163.14,163.14,161.85,163.14,0,0
2010-03-11,163.14,166.16,162.7,164.87,0,0
2010-03-12,164.87,164.87,163.56,164.87,0,0
2010-03-15,164.87,164.87,163.56,163.56,0,0
2010-03-16,165.98,165.98,165.98,165.98,0,0
2010-03-17,167.35,168.99,166.57,166.57,0,0
2010-03-18,170.45,170.45,165.38,166.16,0,0
2010-03-19,161.85,163.14,161.85,162.7,0,0
2010-03-22,162.7,162.7,156.24,156.24,0,0
2010-03-23,156.24,156.24,148.07,148.07,0,0
2010-03-24,148.07,148.07,143.34,145.49,0,0
2010-03-25,147.64,147.64,147.55,147.55,0,0
2010-03-26,148.93,152.72,148.93,149.36,0,0
2010-03-29,148.07,163.14,148.07,156.24,0,0
2010-03-30,162.28,165.2,158.49,163.14,0,0
2010-03-31,163.14,165.2,162.7,163.14,0,0
2010-04-01,163.56,165.2,160.99,165.2,0,0
2010-04-06,159.7,164.43,159.7,163.56,0,0
2010-04-07,159.26,164.1,159.26,163.56,0,0
2010-04-08,164.69,164.69,161.85,163.56,0,0
2010-04-09,163.56,163.56,163.56,163.56,0,0
2010-04-12,164.01,164.01,158.84,158.84,0,0
2010-04-13,154.96,157.11,152.36,156.93,0,0
2010-04-14,153.23,160.55,153.23,160.39,0,0
2010-04-15,163.56,163.56,155.82,155.82,0,0
2010-04-16,153.23,153.23,153.23,153.23,0,0
2010-04-19,150.66,150.66,146.35,146.35,0,0
2010-04-20,146.79,150.66,146.79,150.66,0,0
2010-04-21,147.64,151.52,145.92,146.35,0,0
2010-04-22,145.57,147.2,145.57,147.2,0,0
2010-04-23,147.2,154.96,147.2,154.96,0,0
2010-04-26,154.96,154.96,150.22,153.23,0,0
2010-04-27,151.52,151.52,146.43,149.8,0,0
2010-04-28,144.63,145.14,144.2,144.2,0,0
2010-04-29,154.96,154.96,140.32,142.81,0,0
2010-04-30,142.91,143.34,140.32,140.32,0,0
2010-05-04,140.75,140.75,137.74,137.74,0,0
2010-05-05,138.52,143.76,138.52,140.32,0,0
2010-05-06,140.32,143.76,140.32,143.76,0,0
2010-05-07,140.32,140.32,139.12,139.47,0,0
2010-05-10,143.76,145.92,140.32,140.32,0,0
2010-05-11,140.32,142.04,140.32,141.78,0,0
2010-05-12,141.62,141.62,140.32,140.32,0,0
2010-05-13,145.06,145.06,135.59,137.74,0,0
2010-05-14,137.74,137.74,131.71,133.87,0,0
2010-05-17,134.73,134.73,132.67,132.67,0,0
2010-05-18,136.71,136.8,132.58,136.71,0,0
2010-05-19,133.09,136.46,132.49,136.46,0,0
2010-05-20,137.49,137.49,131.28,131.28,0,0
2010-05-21,129.13,129.13,123.1,129.13,0,0
2010-05-24,126.54,126.54,123.28,123.28,0,0
2010-05-25,123.1,123.97,119.66,119.66,0,0
2010-05-26,127.41,127.41,122.5,122.5,0,0
2010-05-27,124.4,124.4,118.8,118.8,0,0
2010-05-28,122.25,127.32,122.25,125.7,0,0
2010-05-31,125.78,125.86,125.78,125.86,0,0
2010-06-01,128.96,131.71,125.78,125.78,0,0
2010-06-02,129.13,129.13,125.78,125.78,0,0
2010-06-04,126.12,129.99,126.12,129.99,0,0
2010-06-07,130.86,133.01,130.86,130.94,0,0
2010-06-08,131.02,131.02,131.02,131.02,0,0
2010-06-09,133.44,133.44,129.3,129.3,0,0
2010-06-10,126.98,129.91,125.86,129.91,0,0
2010-06-11,129.91,129.91,129.91,129.91,0,0
2010-06-14,126.64,126.64,125.7,125.78,0,0
2010-06-15,125.7,126.54,125.7,126.54,0,0
2010-06-16,129.13,133.01,125.7,125.7,0,0
2010-06-17,125.86,126.12,125.7,126.12,0,0
2010-06-18,125.7,125.7,125.7,125.7,0,0
2010-06-21,125.7,125.7,125.7,125.7,0,0
2010-06-22,125.7,125.7,125.7,125.7,0,0
2010-06-23,129.91,129.91,125.7,125.7,0,0
2010-06-24,125.7,125.7,125.7,125.7,0,0
2010-06-25,128.27,129.91,125.7,129.91,0,0
2010-06-28,126.54,126.54,125.86,125.86,0,0
2010-06-29,125.86,125.86,125.7,125.7,0,0
2010-06-30,125.7,125.7,125.7,125.7,0,0
2010-07-02,125.7,128.35,125.7,128.35,0,0
2010-07-05,128.27,128.35,128.27,128.35,0,0
2010-07-06,128.53,134.64,128.53,130.42,0,0
2010-07-07,130.52,134.3,130.52,134.3,0,0
2010-07-08,134.3,134.3,132.58,133.44,0,0
2010-07-09,138.6,146.79,138.6,142.04,0,0
2010-07-12,148.07,148.07,144.63,147.64,0,0
2010-07-13,148.07,149.71,147.64,149.71,0,0
2010-07-14,150.66,150.66,148.5,150.22,0,0
2010-07-15,150.22,151.52,150.22,151.52,0,0
2010-07-16,151.68,151.86,151.68,151.77,0,0
2010-07-19,151.52,152.81,150.66,152.29,0,0
2010-07-20,152.36,152.36,149.8,149.8,0,0
2010-07-21,148.93,148.93,148.16,148.5,0,0
2010-07-22,148.5,148.5,142.91,147.89,0,0
2010-07-23,148.07,148.93,147.89,148.5,0,0
2010-07-26,152.72,152.72,149.8,149.8,0,0
2010-07-27,151.52,151.77,151.52,151.77,0,0
2010-07-28,152.81,152.81,151.77,152.81,0,0
2010-07-29,153.23,154.01,152.36,153.23,0,0
2010-07-30,151.77,154.01,151.77,153.14,0,0
2010-08-02,151.52,153.14,150.66,153.14,0,0
2010-08-03,153.23,154.34,153.14,154.34,0,0
2010-08-04,154.43,155.03,154.15,155.03,0,0
2010-08-05,155.28,155.28,153.55,155.28,0,0
2010-08-06,154.94,154.94,153.55,154.85,0,0
2010-08-09,154.43,154.43,151.9,152.25,0,0
2010-08-10,153.98,153.98,152.25,153.55,0,0
2010-08-11,153.03,153.03,151.38,152.69,0,0
2010-08-12,152.86,152.86,151.38,151.38,0,0
2010-08-13,152.69,152.69,147.48,148.95,0,0
2010-08-16,148.95,148.95,147.48,147.48,0,0
2010-08-17,146.18,147.39,143.66,147.39,0,0
2010-08-18,147.39,147.39,147.39,147.39,0,0
2010-08-19,151.3,151.3,151.3,151.3,0,0
2010-08-20,153.89,153.89,149.22,149.22,0,0
2010-08-23,147.48,147.48,145.74,145.74,0,0
2010-08-24,145.91,145.91,140.2,140.2,0,0
2010-08-25,139.67,139.67,139.67,139.67,0,0
2010-08-26,138.8,141.4,138.8,141.4,0,0
2010-08-27,141.4,146.61,141.4,146.61,0,0
2010-08-30,147.48,147.48,144.01,147.48,0,0
2010-08-31,145.74,150.85,141.84,150.85,0,0
2010-09-01,149.99,149.99,143.57,149.82,0,0
2010-09-02,149.92,149.92,145.74,149.22,0,0
2010-09-03,149.92,149.92,147.48,148.35,0,0
2010-09-06,149.99,149.99,149.64,149.64,0,0
2010-09-07,149.22,149.22,144.87,144.87,0,0
2010-09-08,144.01,147.9,144.01,147.9,0,0
2010-09-09,143.57,147.04,143.14,146.61,0,0
2010-09-10,146.61,146.61,142.53,142.53,0,0
2010-09-13,142.36,142.36,142.28,142.36,0,0
2010-09-14,141.84,141.84,138.8,138.8,0,0
2010-09-15,137.07,138.8,137.07,137.07,0,0
2010-09-16,137.07,142.18,137.07,142.18,0,0
2010-09-17,142.88,142.88,142.53,142.53,0,0
2010-09-20,142.18,144.62,138.36,144.62,0,0
2010-09-21,144.87,146.61,142.36,145.74,0,0
2010-09-22,146.61,146.61,138.36,146.18,0,0
2010-09-23,144.78,144.78,138.45,143.74,0,0
2010-09-24,145.66,145.66,138.8,145.57,0,0
2010-09-27,145.66,145.66,138.89,143.14,0,0
2010-09-28,144.87,144.87,138.8,142.97,0,0
2010-09-29,142.97,142.97,138.8,142.28,0,0
2010-09-30,138.8,144.87,138.8,144.87,0,0
2010-10-01,146.61,146.61,138.8,143.93,0,0
2010-10-04,144.87,144.87,138.55,141.31,0,0
2010-10-05,141.84,141.84,138.8,141.84,0,0
2010-10-06,141.84,148.17,138.8,145.31,0,0
2010-10-07,147.04,147.04,146.43,146.43,0,0
2010-10-08,145.74,147.48,144.87,147.48,0,0
2010-10-11,148.87,148.87,144.01,147.04,0,0
2010-10-12,147.48,147.48,138.8,141.93,0,0
2010-10-13,139.32,143.14,139.32,142.28,0,0
2010-10-14,143.48,143.48,138.89,142.09,0,0
2010-10-15,141.93,141.93,141.93,141.93,0,0
2010-10-18,142.09,142.09,138.8,141.4,0,0
2010-10-19,141.4,141.4,138.8,141.4,0,0
2010-10-20,141.4,141.4,138.8,138.8,0,0
2010-10-21,138.8,141.4,137.58,140.89,0,0
2010-10-22,140.89,140.89,138.8,140.71,0,0
2010-10-25,140.89,140.89,137.07,137.07,0,0
2010-10-26,138.8,138.8,137.07,138.72,0,0
2010-10-27,138.8,138.97,137.16,138.89,0,0
2010-10-28,140.01,140.01,138.02,140.01,0,0
2010-10-29,140.01,140.01,137.16,140.01,0,0
2010-11-02,140.53,142.62,140.2,140.97,0,0
2010-11-03,143.14,147.48,143.14,147.39,0,0
2010-11-04,148.95,150.52,147.56,150.52,0,0
2010-11-05,150.95,150.95,147.48,148.78,0,0
2010-11-08,148.78,149.99,144.01,144.01,0,0
2010-11-09,147.99,155.28,147.99,152.95,0,0
2010-11-10,163.09,163.27,160.05,161.35,0,0
2010-11-12,160.48,161.18,156.68,158.76,0,0
2010-11-15,158.67,158.67,158.22,158.58,0,0
2010-11-16,158.58,158.58,156.14,157.02,0,0
2010-11-17,155.46,156.14,155.28,155.81,0,0
2010-11-18,155.28,157.02,153.64,156.32,0,0
2010-11-19,156.59,156.59,155.28,155.28,0,0
2010-11-22,155.9,157.02,154.43,154.58,0,0
2010-11-23,154.58,154.58,147.9,152.17,0,0
2010-11-24,156.14,157.98,156.14,156.75,0,0
2010-11-25,160.48,160.48,156.14,156.14,0,0
2010-11-26,156.93,157.02,155.81,157.02,0,0
2010-11-29,158.76,160.24,156.59,156.59,0,0
2010-11-30,156.59,156.59,152.33,156.14,0,0
2010-12-01,156.59,156.59,149.22,153.89,0,0
2010-12-02,155.98,155.98,153.89,155.03,0,0
2010-12-03,155.28,156.14,154.94,156.14,0,0
2010-12-06,156.14,157.46,154.94,155.28,0,0
2010-12-07,157.02,157.02,155.46,155.46,0,0
2010-12-08,156.14,156.14,153.98,153.98,0,0
2010-12-09,155.2,155.2,153.38,153.89,0,0
2010-12-10,153.38,153.38,150.08,151.3,0,0
2010-12-13,151.72,151.81,151.47,151.47,0,0
2010-12-14,152.69,156.14,150.95,156.14,0,0
2010-12-15,157.88,157.88,153.2,153.2,0,0
2010-12-16,153.2,155.28,152.69,155.28,0,0
2010-12-17,155.28,155.28,152.69,153.11,0,0
2010-12-20,153.55,154.25,152.08,154.25,0,0
2010-12-21,154.43,154.43,152.69,153.2,0,0
2010-12-22,154.15,154.15,151.72,153.89,0,0
2010-12-23,153.98,153.98,151.64,151.99,0,0
2010-12-27,153.98,153.98,151.03,152.33,0,0
2010-12-28,150.95,153.98,150.95,153.98,0,0
2010-12-29,153.98,153.98,152.25,153.89,0,0
2010-12-30,153.98,157.88,153.98,157.88,0,0
2010-12-31,157.8,160.48,157.46,160.24,0,0
2011-01-03,160.41,160.41,154.43,158.76,0,0
2011-01-04,158.67,158.67,156.14,157.88,0,0
2011-01-05,157.37,158.76,154.85,158.76,0,0
2011-01-07,157.71,158.76,157.71,158.31,0,0
2011-01-10,160.48,160.48,157.02,157.02,0,0
2011-01-11,156.59,156.59,155.28,156.14,0,0
2011-01-12,155.46,156.14,155.46,156.14,0,0
2011-01-13,156.14,157.02,155.28,155.28,0,0
2011-01-14,155.28,156.06,150.08,150.08,0,0
2011-01-17,150.25,151.81,150.25,151.03,0,0
2011-01-18,152.95,153.11,150.25,150.25,0,0
2011-01-19,150.95,150.95,143.14,147.48,0,0
2011-01-20,147.3,148.6,147.3,148.35,0,0
2011-01-21,147.48,150.43,147.48,150.08,0,0
2011-01-24,150.43,150.43,147.9,148.44,0,0
2011-01-25,148.35,150.08,147.56,147.56,0,0
2011-01-26,147.48,147.56,147.48,147.56,0,0
2011-01-27,146.26,149.92,146.26,148.35,0,0
2011-01-28,149.22,149.22,149.22,149.22,0,0
2011-01-31,141.4,148.78,141.4,148.17,0,0
2011-02-01,149.13,149.13,145.31,148.08,0,0
2011-02-02,148.26,150.43,146.79,148.17,0,0
2011-02-03,146.96,150.08,146.96,147.48,0,0
2011-02-04,147.48,147.48,147.48,147.48,0,0
2011-02-07,148.35,155.72,147.48,155.72,0,0
2011-02-08,156.14,156.14,154.94,154.94,0,0
2011-02-09,154.94,154.94,149.22,152.69,0,0
2011-02-10,152.69,154.94,150.08,154.85,0,0
2011-02-11,151.38,154.43,148.87,154.43,0,0
2011-02-14,155.28,155.28,149.64,153.29,0,0
2011-02-15,155.12,155.12,151.47,151.47,0,0
2011-02-16,150.95,151.47,149.64,149.64,0,0
2011-02-17,148.35,149.64,147.99,149.64,0,0
2011-02-18,148.78,149.64,148.35,149.64,0,0
2011-02-21,148.52,149.64,148.52,149.22,0,0
2011-02-22,149.22,149.64,149.22,149.22,0,0
2011-02-23,149.22,152.69,149.22,151.47,0,0
2011-02-24,152.69,154.58,152.69,153.55,0,0
2011-02-25,153.55,153.55,152.86,153.03,0,0
2011-02-28,153.55,153.55,151.38,153.29,0,0
2011-03-01,153.38,153.38,150.61,151.81,0,0
2011-03-02,153.11,155.03,151.38,155.03,0,0
2011-03-03,154.85,156.14,151.9,156.14,0,0
2011-03-04,155.72,158.16,155.72,158.16,0,0
2011-03-07,158.31,160.32,157.88,159.19,0,0
2011-03-08,160.93,161.35,159.19,160.05,0,0
2011-03-09,160.41,160.75,159,160.15,0,0
2011-03-10,159.88,160.15,157.46,157.53,0,0
2011-03-11,157.02,157.53,153.73,153.98,0,0
2011-03-14,153.55,156.59,153.55,156.59,0,0
2011-03-15,152.95,158.67,152.95,158.67,0,0
2011-03-16,159.79,159.79,158.93,158.93,0,0
2011-03-17,160.05,160.05,158.93,158.93,0,0
2011-03-18,160.05,160.05,157.46,157.46,0,0
2011-03-21,156.14,157.88,156.14,157.88,0,0
2011-03-22,158.93,162.13,157.88,160.75,0,0
2011-03-23,160.93,160.93,160.93,160.93,0,0
2011-03-24,161.18,161.18,158.31,158.31,0,0
2011-03-25,158.31,159.19,156.14,159.19,0,0
2011-03-28,159.19,159.7,158.76,158.76,0,0
2011-03-29,159.45,159.63,156.23,159.54,0,0
2011-03-30,159.63,159.63,159.19,159.19,0,0
2011-03-31,159.19,159.19,156.32,157.88,0,0
2011-04-01,159.19,159.19,156.5,158.58,0,0
2011-04-04,158.85,158.85,151.81,156.14,0,0
2011-04-05,151.81,156.14,151.81,153.55,0,0
2011-04-06,152.33,154.43,151.03,152.77,0,0
2011-04-07,155.98,155.98,152.77,154.43,0,0
2011-04-08,153.55,155.54,152.69,154.43,0,0
2011-04-11,152.69,154.43,151.9,151.9,0,0
2011-04-12,151.81,152.17,149.22,150.95,0,0
2011-04-13,151.12,153.89,149.22,150.08,0,0
2011-04-14,150.95,150.95,149.29,150.52,0,0
2011-04-15,152.25,152.25,149.29,149.29,0,0
2011-04-18,149.22,150.52,145.05,150.52,0,0
2011-04-19,150.08,151.38,150.08,151.38,0,0
2011-04-20,151.3,151.38,150.08,150.43,0,0
2011-04-21,151.72,151.72,147.9,147.9,0,0
2011-04-26,147.9,147.9,144.44,145.74,0,0
2011-04-27,146.61,146.61,145.74,146.51,0,0
2011-04-28,146.51,146.61,143.23,143.23,0,0
2011-04-29,144.01,144.01,138.97,143.14,0,0
2011-05-02,146.51,146.51,143.14,143.14,0,0
2011-05-04,144.01,144.01,142.28,142.28,0,0
2011-05-05,142.97,143.05,141.4,141.4,0,0
2011-05-06,140.97,140.97,138.8,138.8,0,0
2011-05-09,138.8,138.8,136.72,138.8,0,0
2011-05-10,138.89,138.89,134.03,137.94,0,0
2011-05-11,136.98,137.94,136.98,137.24,0,0
2011-05-12,136.98,138.8,136.98,136.98,0,0
2011-05-13,137.94,137.94,127.7,128.48,0,0
2011-05-16,121.45,128.48,120.6,121.89,0,0
2011-05-17,122.14,122.76,119.72,120.41,0,0
2011-05-18,122.76,122.76,119.55,119.97,0,0
2011-05-19,120.93,120.93,115.9,115.9,0,0
2011-05-20,115.03,117.89,115.03,117.11,0,0
2011-05-23,117.03,117.98,117.03,117.55,0,0
2011-05-24,117.55,117.55,117.19,117.55,0,0
2011-05-25,117.55,117.89,117.55,117.89,0,0
2011-05-26,117.98,117.98,116.94,116.94,0,0
2011-05-27,116.68,117.98,116.68,117.98,0,0
2011-05-30,118.51,121.01,117.55,117.55,0,0
2011-05-31,117.98,117.98,117.55,117.55,0,0
2011-06-01,118.42,118.42,117.55,117.89,0,0
2011-06-02,117.98,118.42,117.98,118.42,0,0
2011-06-03,118.42,118.76,118.42,118.42,0,0
2011-06-06,118.42,121.01,118.07,121.01,0,0
2011-06-07,121.01,121.01,118.16,121.01,0,0
2011-06-08,121.29,124.31,121.29,122.76,0,0
2011-06-09,122.76,124.31,122.76,124.31,0,0
2011-06-10,125.02,125.02,121.98,125.02,0,0
2011-06-13,125.02,125.62,123.62,124.49,0,0
2011-06-14,124.93,125.01,123.27,125.01,0,0
2011-06-15,125.52,125.52,121.95,122.37,0,0
2011-06-16,122.37,122.37,118.88,119.76,0,0
2011-06-17,120.63,120.63,118.88,118.88,0,0
2011-06-20,118.88,118.88,116.7,116.7,0,0
2011-06-21,116.7,116.7,107.09,113.21,0,0
2011-06-22,113.46,113.46,107.34,109.27,0,0
2011-06-24,107.51,107.51,98.779,101.05,0,0
2011-06-27,101.05,101.05,93.181,93.181,0,0
2011-06-28,96.07,97.904,92.66,93.967,0,0
2011-06-29,93.967,95.197,93.616,94.402,0,0
2011-06-30,96.155,100.54,95.718,96.155,0,0
2011-07-01,97.028,99.65,95.283,95.283,0,0
2011-07-04,96.155,96.155,92.574,92.574,0,0
2011-07-05,93.361,93.532,89.6,90.909,0,0
2011-07-06,90.909,90.909,89.336,90.471,0,0
2011-07-07,90.036,90.471,90.036,90.036,0,0
2011-07-08,90.036,90.036,89.165,89.867,0,0
2011-07-11,89.867,89.867,88.285,88.285,0,0
2011-07-12,88.285,88.285,87.413,87.413,0,0
2011-07-13,88.379,89.686,87.413,87.413,0,0
2011-07-14,84.97,87.149,84.874,84.874,0,0
2011-07-15,83.918,83.918,83.047,83.047,0,0
2011-07-18,81.124,82.167,78.671,80.424,0,0
2011-07-19,80.424,80.424,76.664,77.451,0,0
2011-07-20,75.177,77.365,73.605,77.365,0,0
2011-07-21,77.621,77.621,73.862,77.451,0,0
2011-07-22,77.451,77.451,76.484,76.75,0,0
2011-07-25,76.484,77.621,76.484,77.621,0,0
2011-07-26,77.365,77.365,76.314,77.27,0,0
2011-07-27,77.27,77.27,75.349,75.349,0,0
2011-07-28,75.349,76.92,73.51,76.92,0,0
2011-07-29,76.484,76.484,74.39,76.484,0,0
2011-08-01,76.484,83.483,76.484,79.544,0,0
2011-08-02,79.544,81.731,79.544,79.544,0,0
2011-08-03,78.671,79.544,76.484,77.365,0,0
2011-08-04,77.27,77.27,69.931,69.931,0,0
2011-08-05,67.743,69.931,65.119,67.042,0,0
2011-08-08,62.061,64.248,61.975,62.061,0,0
2011-08-09,62.061,63.813,59.532,62.061,0,0
2011-08-10,62.847,66,62.847,64.598,0,0
2011-08-11,63.813,68.179,63.813,65.564,0,0
2011-08-12,68.179,69.931,65.564,69.931,0,0
2011-08-16,76.92,76.92,74.307,75.177,0,0
2011-08-17,75.177,75.613,75.177,75.177,0,0
2011-08-18,75.177,75.177,67.743,67.743,0,0
2011-08-19,67.743,67.743,63.813,67.308,0,0
2011-08-22,69.06,69.931,69.06,69.06,0,0
2011-08-23,70.631,70.631,67.308,69.06,0,0
2011-08-24,69.845,69.845,66.957,68.008,0,0
2011-08-25,68.179,68.179,66.701,68.179,0,0
2011-08-26,68.179,68.179,67.923,68.179,0,0
2011-08-29,69.06,69.06,69.06,69.06,0,0
2011-08-30,69.931,69.931,68.974,69.06,0,0
2011-08-31,69.931,69.931,68.094,68.094,0,0
2011-09-01,67.392,68.094,66.957,67.308,0,0
2011-09-02,67.308,67.308,64.077,64.248,0,0
2011-09-05,61.189,64.248,59.001,59.882,0,0
2011-09-06,58.13,58.916,57.695,58.916,0,0
2011-09-07,57.781,59.437,57.781,59.352,0,0
2011-09-08,58.916,61.625,58.916,60.488,0,0
2011-09-09,60.488,61.975,60.488,61.975,0,0
2011-09-12,60.488,60.488,58.13,58.566,0,0
2011-09-13,58.651,58.651,56.993,57.865,0,0
2011-09-14,57.61,57.61,56.993,56.993,0,0
2011-09-15,56.993,56.993,54.199,55.943,0,0
2011-09-16,55.943,55.943,52.448,53.319,0,0
2011-09-19,53.669,53.669,52.884,53.064,0,0
2011-09-20,52.969,53.148,52.969,53.148,0,0
2011-09-21,53.319,53.319,52.363,52.448,0,0
2011-09-22,51.832,51.927,50.526,50.526,0,0
2011-09-23,49.825,50.526,48.953,49.825,0,0
2011-09-26,48.082,48.953,44.578,48.338,0,0
2011-09-27,48.603,48.603,46.5,47.466,0,0
2011-09-28,47.382,47.903,47.201,47.732,0,0
2011-09-29,47.637,47.732,46.33,46.766,0,0
2011-09-30,46.766,46.766,45.544,46.33,0,0
2011-10-03,46.33,46.33,43.792,43.792,0,0
2011-10-04,43.706,43.792,42.92,43.706,0,0
2011-10-05,43.706,44.928,43.356,44.493,0,0
2011-10-06,45.014,45.279,43.706,45.014,0,0
2011-10-07,46.245,46.245,44.758,45.014,0,0
2011-10-10,45.364,45.364,44.672,45.108,0,0
2011-10-11,45.014,45.459,44.143,44.843,0,0
2011-10-12,45.459,46.15,44.578,44.672,0,0
2011-10-13,44.758,46.33,44.672,44.672,0,0
2011-10-14,46.065,49.825,46.065,49.825,0,0
2011-10-17,50.79,61.189,50.79,53.669,0,0
2011-10-18,53.669,53.669,49.825,50.089,0,0
2011-10-19,50.261,51.576,48.774,49.389,0,0
2011-10-20,48.953,49.389,47.466,48.688,0,0
2011-10-21,49.219,51.141,46.946,51.141,0,0
2011-10-24,51.492,52.884,50.696,52.884,0,0
2011-10-25,53.233,53.319,50.44,50.44,0,0
2011-10-26,50.696,50.961,49.559,49.559,0,0
2011-10-27,49.825,54.636,49.825,53.85,0,0
2011-10-28,56.472,56.644,53.5,53.5,0,0
2011-10-31,54.199,54.199,52.448,52.884,0,0
2011-11-02,51.311,51.576,48.953,50.696,0,0
2011-11-03,50.261,53.319,50.261,53.319,0,0
2011-11-04,54.106,54.106,52.013,53.585,0,0
2011-11-07,53.669,54.199,53.319,53.319,0,0
2011-11-08,53.319,53.85,52.448,53.319,0,0
2011-11-09,53.319,53.319,51.576,51.576,0,0
2011-11-10,50.61,50.696,50.61,50.696,0,0
2011-11-14,52.013,52.013,50.876,50.876,0,0
2011-11-15,49.038,49.038,47.201,48.082,0,0
2011-11-16,47.732,47.732,47.287,47.551,0,0
2011-11-17,47.732,47.732,46.415,47.466,0,0
2011-11-18,48.424,48.424,44.758,44.758,0,0
2011-11-21,44.578,44.578,42.57,42.57,0,0
2011-11-22,42.57,43.091,39.426,39.511,0,0
2011-11-23,38.81,41.083,35.665,38.81,0,0
2011-11-24,38.81,38.81,38.639,38.639,0,0
2011-11-25,38.81,38.81,38.289,38.375,0,0
2011-11-28,38.46,38.46,35.05,36.803,0,0
2011-11-29,36.367,38.375,36.272,38.375,0,0
2011-11-30,38.375,39.341,36.888,39.246,0,0
2011-12-01,39.341,40.212,36.717,38.375,0,0
2011-12-02,38.204,38.204,37.152,37.759,0,0
2011-12-05,37.854,37.94,36.367,36.717,0,0
2011-12-06,36.717,37.588,36.717,37.504,0,0
2011-12-07,37.588,37.588,35.401,36.717,0,0
2011-12-08,36.803,36.803,35.401,35.401,0,0
2011-12-09,35.487,36.016,33.308,36.016,0,0
2011-12-12,35.401,36.453,35.401,36.453,0,0
2011-12-13,36.717,37.588,36.717,37.504,0,0
2011-12-14,37.588,38.289,36.888,37.588,0,0
2011-12-15,38.025,38.025,37.152,37.588,0,0
2011-12-16,37.94,38.289,37.067,37.588,0,0
2011-12-19,38.025,38.289,37.409,37.409,0,0
2011-12-20,38.025,38.025,37.673,38.025,0,0
2011-12-21,38.725,38.725,38.46,38.545,0,0
2011-12-22,38.725,39.246,38.46,38.896,0,0
2011-12-23,39.341,39.341,38.896,38.99,0,0
2011-12-27,38.896,38.99,38.11,38.46,0,0
2011-12-28,38.46,38.46,38.204,38.46,0,0
2011-12-29,38.204,38.46,38.025,38.46,0,0
2011-12-30,38.46,38.46,38.375,38.46,0,0
2012-01-02,38.289,38.289,38.11,38.11,0,0
2012-01-03,38.11,38.375,37.588,38.375,0,0
2012-01-04,38.375,38.375,37.323,37.323,0,0
2012-01-05,37.588,38.204,36.888,37.504,0,0
2012-01-09,38.204,38.204,38.025,38.204,0,0
2012-01-10,38.204,39.246,38.204,39.16,0,0
2012-01-11,39.16,42.135,39.16,42.135,0,0
2012-01-12,41.954,45.364,41.954,44.493,0,0
2012-01-13,44.493,45.81,43.706,43.706,0,0
2012-01-16,43.622,44.493,43.622,44.407,0,0
2012-01-17,44.493,48.082,44.493,48.082,0,0
2012-01-18,50.696,51.397,50.004,50.961,0,0
2012-01-19,50.961,52.183,50.876,51.047,0,0
2012-01-20,51.047,51.492,49.825,49.825,0,0
2012-01-23,49.389,49.389,47.116,49.304,0,0
2012-01-24,49.038,53.669,49.038,53.669,0,0
2012-01-25,53.669,57.259,53.669,57.259,0,0
2012-01-26,59.437,61.104,59.437,60.138,0,0
2012-01-27,60.403,62.506,60.318,62.506,0,0
2012-01-30,61.805,62.942,61.625,62.942,0,0
2012-01-31,62.847,64.513,62.411,63.813,0,0
2012-02-01,63.813,63.813,61.189,63.292,0,0
2012-02-02,62.942,63.813,62.942,63.813,0,0
2012-02-03,63.197,64.334,62.061,63.813,0,0
2012-02-06,62.506,64.513,62.506,63.727,0,0
2012-02-07,63.727,64.248,61.891,62.942,0,0
2012-02-08,63.547,64.163,63.547,63.898,0,0
2012-02-09,63.898,63.898,62.506,63.377,0,0
2012-02-10,63.547,63.547,61.274,62.761,0,0
2012-02-13,62.676,67.308,62.676,67.308,0,0
2012-02-14,70.196,70.196,65.564,66.351,0,0
2012-02-15,66.351,70.631,66.351,70.631,0,0
2012-02-16,70.547,70.547,68.624,69.931,0,0
2012-02-17,70.801,76.048,70.717,71.683,0,0
2012-02-20,75.092,77.715,74.307,76.834,0,0
2012-02-21,77.715,77.8,71.853,71.853,0,0
2012-02-22,71.683,71.683,68.179,69.931,0,0
2012-02-23,69.145,72.989,69.145,71.683,0,0
2012-02-24,71.683,72.553,70.366,70.366,0,0
2012-02-27,70.717,70.717,69.229,69.845,0,0
2012-02-28,69.845,69.845,69.145,69.145,0,0
2012-02-29,66.086,66.436,62.506,62.506,0,0
2012-03-01,60.403,66.17,60.053,65.564,0,0
2012-03-02,64.248,65.564,64.248,65.47,0,0
2012-03-05,65.119,66.17,64.429,64.949,0,0
2012-03-06,64.949,64.949,62.155,62.326,0,0
2012-03-07,62.847,63.813,61.625,63.813,0,0
2012-03-08,63.813,65.385,63.632,65.3,0,0
2012-03-09,65.3,65.3,64.248,64.684,0,0
2012-03-12,64.684,64.684,62.506,62.942,0,0
2012-03-13,63.377,63.377,62.506,62.942,0,0
2012-03-14,62.942,64.429,62.942,62.942,0,0
2012-03-15,62.942,63.377,62.942,62.942,0,0
2012-03-16,61.891,61.891,58.566,58.83,0,0
2012-03-19,60.233,61.104,58.83,61.104,0,0
2012-03-20,59.882,61.104,59.437,61.104,0,0
2012-03-21,59.437,59.437,56.823,57.695,0,0
2012-03-22,58.13,58.13,55.772,56.558,0,0
2012-03-23,54.72,58.045,54.72,57.514,0,0
2012-03-26,57.514,57.514,55.943,57.164,0,0
2012-03-27,57.259,58.395,57.164,58.395,0,0
2012-03-28,58.48,60.488,58.395,60.488,0,0
2012-03-29,59.437,61.189,59.437,61.104,0,0
2012-03-30,61.625,61.625,59.268,60.925,0,0
2012-04-02,61.019,61.104,60.574,61.104,0,0
2012-04-03,61.019,61.104,59.437,59.437,0,0
2012-04-04,59.882,59.882,56.123,56.123,0,0
2012-04-05,55.071,57.61,55.071,56.123,0,0
2012-04-10,55.071,56.293,52.448,53.233,0,0
2012-04-11,51.047,53.233,51.047,53.233,0,0
2012-04-12,53.233,53.233,52.448,53.064,0,0
2012-04-13,53.233,53.319,52.448,52.448,0,0
2012-04-16,53.414,54.106,53.414,54.021,0,0
2012-04-17,53.319,54.987,53.319,53.319,0,0
2012-04-18,53.414,56.558,53.414,55.943,0,0
2012-04-19,56.644,58.216,55.943,56.823,0,0
2012-04-20,58.302,58.302,56.558,57.514,0,0
2012-04-23,57.164,57.164,51.576,53.85,0,0
2012-04-24,49.038,56.729,49.038,56.729,0,0
2012-04-25,54.285,54.285,52.363,52.363,0,0
2012-04-26,52.277,52.277,48.953,49.219,0,0
2012-04-27,48.603,52.363,48.517,52.363,0,0
2012-04-30,52.448,53.669,52.363,53.319,0,0
2012-05-02,53.754,54.106,52.798,53.319,0,0
2012-05-04,53.85,54.021,53.319,54.021,0,0
2012-05-07,53.319,53.319,50.961,52.448,0,0
2012-05-08,53.064,53.064,51.576,51.576,0,0
2012-05-09,51.832,51.832,50.876,50.876,0,0
2012-05-10,50.696,50.696,49.74,50.696,0,0
2012-05-11,49.559,50.961,49.559,49.825,0,0
2012-05-14,49.825,49.825,48.869,49.654,0,0
2012-05-15,49.825,49.825,49.304,49.304,0,0
2012-05-16,48.253,48.253,44.578,46.33,0,0
2012-05-17,45.014,45.014,43.006,43.006,0,0
2012-05-18,43.006,46.33,40.912,46.245,0,0
2012-05-21,45.98,52.448,45.98,52.363,0,0
2012-05-22,52.363,53.85,52.277,52.277,0,0
2012-05-23,51.662,51.662,50.696,50.696,0,0
2012-05-24,50.696,50.696,48.953,48.953,0,0
2012-05-25,49.654,49.654,48.082,48.082,0,0
2012-05-28,48.082,48.082,46.33,47.637,0,0
2012-05-29,48.082,48.082,46.595,46.595,0,0
2012-05-30,47.116,47.116,44.322,44.578,0,0
2012-05-31,43.706,43.706,41.348,43.706,0,0
2012-06-01,43.271,45.629,42.399,43.271,0,0
2012-06-04,43.091,43.091,39.776,40.818,0,0
2012-06-05,39.511,40.818,38.204,38.725,0,0
2012-06-06,38.639,38.639,37.588,37.588,0,0
2012-06-08,37.152,40.297,37.152,40.297,0,0
2012-06-11,40.297,41.954,40.212,41.954,0,0
2012-06-12,41.954,43.792,41.954,43.006,0,0
2012-06-13,43.706,47.201,43.706,47.201,0,0
2012-06-14,47.201,51.576,47.201,51.397,0,0
2012-06-15,52.013,54.106,51.492,54.106,0,0
2012-06-18,54.199,54.199,54.106,54.106,0,0
2012-06-19,54.199,54.199,53.319,54.021,0,0
2012-06-20,54.021,54.021,49.825,49.825,0,0
2012-06-21,49.825,50.526,46.766,46.766,0,0
2012-06-22,47.201,47.201,43.706,44.407,0,0
2012-06-25,43.706,43.706,42.049,42.049,0,0
2012-06-26,42.049,44.322,42.049,43.536,0,0
2012-06-27,45.459,46.245,42.92,42.92,0,0
2012-06-28,42.749,45.014,40.212,40.818,0,0
2012-06-29,41.083,41.083,36.803,37.067,0,0
2012-07-02,36.974,36.974,32.172,33.214,0,0
2012-07-03,33.563,34.094,30.249,30.94,0,0
2012-07-04,31.035,31.035,29.463,30.154,0,0
2012-07-05,30.249,32.257,29.984,32.257,0,0
2012-07-06,32.257,33.914,32.257,33.393,0,0
2012-07-09,33.128,34.88,32.872,34.88,0,0
2012-07-10,35.932,35.932,34.094,34.795,0,0
2012-07-11,34.7,34.795,32.343,32.778,0,0
2012-07-12,32.343,32.343,31.47,31.556,0,0
2012-07-13,31.822,32.257,31.736,32.076,0,0
2012-07-16,32.257,32.343,31.822,32.076,0,0
2012-07-17,32.172,32.172,31.47,31.822,0,0
2012-07-18,31.47,33.393,31.47,33.393,0,0
2012-07-19,33.478,33.478,32.343,32.343,0,0
2012-07-20,32.343,32.343,31.905,32.076,0,0
2012-07-23,31.47,31.641,30.599,31.641,0,0
2012-07-24,31.641,31.641,30.77,31.47,0,0
2012-07-25,30.855,31.47,30.855,31.47,0,0
2012-07-26,31.47,31.641,30.334,30.599,0,0
2012-07-27,30.855,31.291,30.069,31.206,0,0
2012-07-30,31.12,31.291,31.12,31.291,0,0
2012-07-31,31.291,31.291,29.804,30.599,0,0
2012-08-01,30.419,30.599,27.711,29.368,0,0
2012-08-02,29.368,31.47,28.847,29.368,0,0
2012-08-03,30.249,30.249,27.796,28.667,0,0
2012-08-06,28.583,28.583,28.583,28.583,0,0
2012-08-07,28.583,29.984,28.583,29.984,0,0
2012-08-08,30.249,31.385,30.249,30.855,0,0
2012-08-09,30.855,30.855,30.855,30.855,0,0
2012-08-10,30.855,30.855,30.855,30.855,0,0
2012-08-13,30.419,31.291,30.419,31.291,0,0
2012-08-14,31.206,31.291,30.069,30.069,0,0
2012-08-16,30.069,30.249,30.069,30.249,0,0
2012-08-17,30.334,30.334,30.249,30.334,0,0
2012-08-20,30.855,30.855,29.804,30.419,0,0
2012-08-21,30.504,30.504,29.633,30.504,0,0
2012-08-22,30.855,30.855,29.984,30.599,0,0
2012-08-23,30.599,31.12,30.069,31.12,0,0
2012-08-24,31.12,32.343,31.12,32.343,0,0
2012-08-27,32.607,32.607,32.172,32.257,0,0
2012-08-28,31.291,31.822,30.599,31.385,0,0
2012-08-29,31.47,31.47,30.069,31.47,0,0
2012-08-30,31.47,31.822,30.685,31.385,0,0
2012-08-31,30.599,31.385,29.283,31.035,0,0
2012-09-03,31.035,31.035,30.599,31.035,0,0
2012-09-04,31.291,31.291,30.855,30.855,0,0
2012-09-05,28.583,30.855,28.583,29.984,0,0
2012-09-06,29.899,30.249,29.018,29.984,0,0
2012-09-07,29.719,31.736,29.719,30.504,0,0
2012-09-10,30.599,32.426,30.504,31.47,0,0
2012-09-11,31.47,31.991,31.035,31.291,0,0
2012-09-12,31.385,31.736,31.291,31.47,0,0
2012-09-13,31.47,31.47,31.47,31.47,0,0
2012-09-14,31.035,31.556,30.77,31.47,0,0
2012-09-17,31.556,31.556,30.77,31.385,0,0
2012-09-18,31.47,31.47,30.599,30.77,0,0
2012-09-19,30.599,31.385,29.633,31.035,0,0
2012-09-20,31.035,31.035,28.847,29.112,0,0
2012-09-21,29.112,30.069,29.112,30.069,0,0
2012-09-24,30.504,31.291,30.504,31.035,0,0
2012-09-25,31.12,31.12,30.599,31.12,0,0
2012-09-26,31.47,31.47,30.599,31.385,0,0
2012-09-27,31.385,33.128,30.685,33.128,0,0
2012-09-28,33.128,33.128,32.257,32.257,0,0
2012-10-01,32.257,32.522,32.076,32.343,0,0
2012-10-02,31.991,32.693,31.991,32.343,0,0
2012-10-03,32.343,32.343,31.291,32.257,0,0
2012-10-04,32.257,32.257,30.77,31.822,0,0
2012-10-05,31.991,31.991,31.47,31.822,0,0
2012-10-08,31.822,32.172,31.822,32.172,0,0
2012-10-09,32.172,34.094,32.172,32.343,0,0
2012-10-10,32.778,32.778,32.343,32.343,0,0
2012-10-11,32.343,32.426,32.076,32.343,0,0
2012-10-12,32.076,33.128,32.076,32.343,0,0
2012-10-15,32.343,32.343,32.172,32.343,0,0
2012-10-16,32.343,32.343,31.905,32.257,0,0
2012-10-17,32.257,32.343,31.641,32.343,0,0
2012-10-18,32.343,32.343,32.257,32.343,0,0
2012-10-19,32.522,32.522,32.076,32.076,0,0
2012-10-22,32.343,32.343,32.076,32.343,0,0
2012-10-23,32.076,32.343,31.905,32.343,0,0
2012-10-24,31.47,31.822,30.77,31.12,0,0
2012-10-25,31.206,31.206,31.206,31.206,0,0
2012-10-26,31.035,31.385,30.599,31.385,0,0
2012-10-29,31.47,31.47,29.899,30.249,0,0
2012-10-30,29.899,30.855,29.633,30.855,0,0
2012-10-31,30.855,32.343,30.685,31.822,0,0
2012-11-02,31.822,32.343,30.77,31.035,0,0
2012-11-05,30.855,32.076,30.855,31.385,0,0
2012-11-06,31.736,31.736,31.035,31.47,0,0
2012-11-07,31.736,31.991,31.47,31.47,0,0
2012-11-08,31.291,31.736,31.291,31.47,0,0
2012-11-09,31.291,31.736,31.291,31.291,0,0
2012-11-12,31.47,31.47,31.385,31.385,0,0
2012-11-13,31.035,31.641,29.899,31.035,0,0
2012-11-14,29.899,31.035,29.899,31.035,0,0
2012-11-15,30.599,31.035,27.881,29.899,0,0
2012-11-16,28.146,29.804,28.146,29.018,0,0
2012-11-19,29.548,29.548,29.548,29.548,0,0
2012-11-20,29.804,30.334,29.548,30.334,0,0
2012-11-21,30.419,30.504,30.334,30.334,0,0
2012-11-22,30.599,30.599,30.419,30.504,0,0
2012-11-23,30.504,30.504,30.419,30.504,0,0
2012-11-26,30.504,30.504,30.419,30.419,0,0
2012-11-27,29.719,30.154,29.719,30.154,0,0
2012-11-28,30.069,30.154,28.847,29.463,0,0
2012-11-29,29.463,30.419,27.711,27.711,0,0
2012-11-30,28.412,30.419,28.412,30.154,0,0
2012-12-03,30.419,31.47,30.069,31.47,0,0
2012-12-04,31.291,31.291,31.035,31.035,0,0
2012-12-05,31.035,31.385,31.035,31.385,0,0
2012-12-06,31.385,31.385,29.984,31.206,0,0
2012-12-07,31.206,31.47,29.984,31.035,0,0
2012-12-10,31.206,31.47,30.599,31.206,0,0
2012-12-11,31.291,31.291,30.77,31.291,0,0
2012-12-12,31.291,31.291,30.249,31.035,0,0
2012-12-13,31.035,34.008,30.154,34.008,0,0
2012-12-14,34.094,35.401,34.094,34.88,0,0
2012-12-17,35.751,35.751,33.563,33.744,0,0
2012-12-18,34.18,34.18,33.214,33.214,0,0
2012-12-19,33.478,34.094,33.214,34.008,0,0
2012-12-20,34.008,34.094,33.214,33.744,0,0
2012-12-21,33.478,33.478,33.214,33.214,0,0
2012-12-27,33.214,33.478,32.257,33.393,0,0
2012-12-28,33.393,34.094,32.778,34.094,0,0
2013-01-02,34.008,34.008,33.563,33.563,0,0
2013-01-03,33.128,33.659,32.522,33.214,0,0
2013-01-04,33.214,33.214,32.522,33.042,0,0
2013-01-07,32.778,33.042,32.343,32.693,0,0
2013-01-08,32.693,32.693,32.257,32.257,0,0
2013-01-09,32.343,32.522,32.257,32.426,0,0
2013-01-10,32.778,33.128,32.343,32.343,0,0
2013-01-11,32.343,32.872,32.343,32.778,0,0
2013-01-14,32.607,32.957,32.607,32.778,0,0
2013-01-15,32.778,32.872,32.172,32.172,0,0
2013-01-17,32.426,32.872,32.426,32.778,0,0
2013-01-18,32.872,32.872,32.607,32.607,0,0
2013-01-21,33.042,39.862,32.872,37.759,0,0
2013-01-22,37.238,37.588,36.453,36.803,0,0
2013-01-23,37.067,37.152,36.102,36.623,0,0
2013-01-24,35.932,38.725,35.932,38.025,0,0
2013-01-25,38.025,38.025,37.152,37.759,0,0
2013-01-28,37.759,40.032,37.673,39.511,0,0
2013-01-29,39.776,40.032,38.725,39.511,0,0
2013-01-30,39.862,41.348,38.025,39.511,0,0
2013-01-31,39.246,39.246,37.588,38.639,0,0
2013-02-01,37.588,38.639,36.623,37.323,0,0
2013-02-04,36.272,38.11,36.102,37.409,0,0
2013-02-05,37.409,38.204,36.974,38.204,0,0
2013-02-06,38.289,38.46,37.854,37.854,0,0
2013-02-07,37.759,38.46,36.888,37.409,0,0
2013-02-08,37.409,37.409,36.102,37.409,0,0
2013-02-11,37.588,39.076,37.588,38.375,0,0
2013-02-12,38.375,39.246,38.289,38.99,0,0
2013-02-13,39.16,39.946,38.289,38.639,0,0
2013-02-14,38.639,39.16,38.289,38.375,0,0
2013-02-15,38.639,39.16,38.289,38.896,0,0
2013-02-18,38.896,40.648,38.896,40.648,0,0
2013-02-19,40.648,42.57,39.946,42.57,0,0
2013-02-20,42.835,42.835,40.648,40.648,0,0
2013-02-21,39.776,41.519,39.776,41.348,0,0
2013-02-22,41.083,42.049,41.083,41.869,0,0
2013-02-25,41.784,43.187,41.784,42.835,0,0
2013-02-26,42.835,44.928,42.835,44.407,0,0
2013-02-27,44.407,45.014,42.485,43.441,0,0
2013-02-28,42.92,44.143,42.92,43.441,0,0
2013-03-01,42.656,43.536,42.656,43.536,0,0
2013-03-04,43.622,43.622,41.869,41.954,0,0
2013-03-05,42.304,42.304,40.818,41.083,0,0
2013-03-06,41.169,42.049,41.083,41.954,0,0
2013-03-07,41.869,42.656,41.869,41.869,0,0
2013-03-08,41.869,41.869,39.946,41.433,0,0
2013-03-11,42.749,42.749,41.083,41.519,0,0
2013-03-12,41.614,41.954,40.998,40.998,0,0
2013-03-13,41.083,41.433,38.46,40.383,0,0
2013-03-14,40.127,40.212,38.99,38.99,0,0
2013-03-15,39.776,41.083,38.639,39.776,0,0
2013-03-18,40.912,41.433,40.818,41.433,0,0
2013-03-19,40.818,41.433,40.648,41.169,0,0
2013-03-20,41.169,41.433,41.169,41.263,0,0
2013-03-21,41.083,41.083,38.896,40.477,0,0
2013-03-22,39.076,39.341,37.152,39.16,0,0
2013-03-25,39.426,39.426,37.759,38.375,0,0
2013-03-26,37.409,38.204,34.88,35.932,0,0
2013-03-27,37.588,37.588,35.932,35.932,0,0
2013-03-28,37.323,37.94,36.803,37.409,0,0
2013-04-02,36.538,37.409,35.751,36.367,0,0
2013-04-03,36.367,36.367,36.016,36.016,0,0
2013-04-04,36.016,36.016,34.966,34.966,0,0
2013-04-05,36.016,36.538,34.966,34.966,0,0
2013-04-08,34.094,35.837,34.094,35.05,0,0
2013-04-09,35.316,36.016,35.316,35.401,0,0
2013-04-10,35.136,35.401,32.957,33.128,0,0
2013-04-11,33.214,33.393,32.076,33.214,0,0
2013-04-12,33.214,33.214,31.905,32.257,0,0
2013-04-15,31.991,32.426,31.991,32.426,0,0
2013-04-17,32.607,32.607,31.47,32.076,0,0
2013-04-18,31.556,31.556,30.334,30.334,0,0
2013-04-19,30.77,30.77,28.847,30.685,0,0
2013-04-22,31.291,31.291,28.497,30.154,0,0
2013-04-23,28.847,29.899,28.847,29.719,0,0
2013-04-24,29.899,30.419,29.719,30.249,0,0
2013-04-25,30.154,30.419,29.283,29.283,0,0
2013-04-26,29.283,30.069,28.497,30.069,0,0
2013-04-29,30.334,30.855,30.334,30.685,0,0
2013-04-30,30.685,30.685,30.599,30.685,0,0
2013-05-02,30.599,30.599,30.504,30.504,0,0
2013-05-06,30.504,30.504,29.112,29.719,0,0
2013-05-07,29.018,30.599,29.018,30.419,0,0
2013-05-08,30.419,30.855,30.154,30.855,0,0
2013-05-09,31.47,31.905,31.206,31.206,0,0
2013-05-10,31.47,31.991,31.206,31.991,0,0
2013-05-13,31.991,33.214,31.905,33.214,0,0
2013-05-14,33.393,34.445,33.308,34.445,0,0
2013-05-15,35.05,38.46,35.05,38.46,0,0
2013-05-16,38.896,38.99,37.588,38.99,0,0
2013-05-17,39.246,39.246,38.11,39.16,0,0
2013-05-20,38.46,39.16,38.025,38.46,0,0
2013-05-21,38.46,38.46,37.588,38.46,0,0
2013-05-22,37.759,37.759,37.759,37.759,0,0
2013-05-23,37.759,37.759,34.795,37.504,0,0
2013-05-24,37.504,37.504,36.453,37.409,0,0
2013-05-27,34.795,38.375,34.795,38.375,0,0
2013-05-28,37.152,38.375,37.152,37.588,0,0
2013-05-29,39.076,39.076,36.888,37.504,0,0
2013-05-31,37.409,38.46,37.409,37.759,0,0
2013-06-03,38.545,38.545,37.759,38.375,0,0
2013-06-04,38.204,38.375,36.623,37.854,0,0
2013-06-05,37.238,37.854,37.238,37.673,0,0
2013-06-06,36.974,37.152,36.974,37.067,0,0
2013-06-07,37.067,37.067,35.581,36.717,0,0
2013-06-10,35.932,38.81,35.932,38.81,0,0
2013-06-11,37.409,38.725,37.409,38.46,0,0
2013-06-12,38.375,38.375,36.367,37.152,0,0
2013-06-13,35.837,38.375,35.837,38.375,0,0
2013-06-14,37.759,38.99,37.759,38.99,0,0
2013-06-17,38.99,39.16,38.025,39.16,0,0
2013-06-18,39.246,39.776,38.46,39.776,0,0
2013-06-19,40.032,41.433,40.032,41.433,0,0
2013-06-20,42.399,42.399,38.204,41.263,0,0
2013-06-21,37.854,41.263,37.854,41.263,0,0
2013-06-24,37.588,38.375,37.588,38.289,0,0
2013-06-25,37.854,38.375,37.854,38.375,0,0
2013-06-26,38.025,38.025,37.854,37.854,0,0
2013-06-27,38.11,38.725,36.272,36.803,0,0
2013-06-28,36.803,36.803,33.393,36.538,0,0
2013-07-01,36.453,36.453,34.966,35.136,0,0
2013-07-02,34.966,36.272,34.966,36.272,0,0
2013-07-03,35.401,37.323,35.401,37.323,0,0
2013-07-04,37.152,37.588,36.272,36.538,0,0
2013-07-05,36.538,36.538,36.016,36.016,0,0
2013-07-08,36.186,36.272,35.23,36.272,0,0
2013-07-09,36.538,36.623,35.837,35.837,0,0
2013-07-10,36.016,36.272,35.401,36.272,0,0
2013-07-11,36.272,36.272,35.581,35.837,0,0
2013-07-12,36.102,36.102,35.136,35.665,0,0
2013-07-15,35.401,35.837,35.401,35.837,0,0
2013-07-16,36.367,36.717,35.665,36.538,0,0
2013-07-17,36.717,36.717,35.837,36.538,0,0
2013-07-18,36.272,36.272,36.272,36.272,0,0
2013-07-22,35.401,35.401,34.445,34.529,0,0
2013-07-23,34.094,34.264,34.094,34.264,0,0
2013-07-24,34.88,35.932,34.7,35.05,0,0
2013-07-25,36.186,36.717,36.186,36.717,0,0
2013-07-26,36.717,36.717,36.272,36.453,0,0
2013-07-29,36.623,36.717,36.623,36.717,0,0
2013-07-30,36.717,36.717,36.186,36.186,0,0
2013-07-31,35.837,35.837,35.665,35.665,0,0
2013-08-01,35.837,35.837,35.05,35.136,0,0
2013-08-02,35.136,35.837,35.136,35.837,0,0
2013-08-05,35.837,35.837,35.837,35.837,0,0
2013-08-06,35.932,36.717,35.837,36.717,0,0
2013-08-07,36.367,38.46,36.367,38.46,0,0
2013-08-08,41.083,41.083,40.212,40.563,0,0
2013-08-09,40.563,40.818,38.025,40.212,0,0
2013-08-12,40.563,40.648,38.896,38.896,0,0
2013-08-13,39.076,39.076,38.289,38.46,0,0
2013-08-14,38.46,41.083,38.46,41.083,0,0
2013-08-16,41.519,41.519,40.212,40.212,0,0
2013-08-19,40.212,41.954,40.212,41.954,0,0
2013-08-20,42.485,42.656,41.954,42.485,0,0
2013-08-21,42.485,42.485,41.083,41.348,0,0
2013-08-22,42.049,42.049,41.348,41.869,0,0
2013-08-23,41.954,42.399,41.519,41.954,0,0
2013-08-26,41.954,43.187,41.954,42.835,0,0
2013-08-27,43.536,43.536,42.835,42.835,0,0
2013-08-28,42.835,42.835,42.835,42.835,0,0
2013-08-29,42.835,42.835,42.221,42.221,0,0
2013-08-30,42.835,42.835,38.545,42.304,0,0
2013-09-02,40.733,40.733,40.648,40.648,0,0
2013-09-03,41.083,42.92,41.083,42.92,0,0
2013-09-04,43.091,43.271,42.399,43.271,0,0
2013-09-05,43.271,43.271,41.784,42.835,0,0
2013-09-06,42.135,42.749,42.135,42.749,0,0
2013-09-09,42.399,42.749,42.399,42.749,0,0
2013-09-10,42.749,45.279,41.954,45.108,0,0
2013-09-11,45.459,47.116,45.459,46.766,0,0
2013-09-12,46.766,46.766,46.595,46.595,0,0
2013-09-13,48.953,53.754,48.953,52.628,0,0
2013-09-16,56.823,56.823,54.285,56.472,0,0
2013-09-17,56.644,59.967,55.857,59.182,0,0
2013-09-18,59.182,59.182,57.259,57.61,0,0
2013-09-19,57.514,60.233,56.644,58.651,0,0
2013-09-20,59.182,59.182,58.566,58.651,0,0
2013-09-23,57.959,57.959,56.027,56.027,0,0
2013-09-24,56.027,56.027,54.636,54.987,0,0
2013-09-25,54.987,56.027,54.199,55.592,0,0
2013-09-26,55.071,55.071,54.199,55.071,0,0
2013-09-27,55.687,55.687,54.199,54.456,0,0
2013-09-30,54.199,54.891,51.576,54.806,0,0
2013-10-01,54.285,54.285,53.319,53.935,0,0
2013-10-02,53.935,53.935,52.448,53.319,0,0
2013-10-03,52.969,54.55,52.884,53.935,0,0
2013-10-04,53.935,55.422,53.319,55.422,0,0
2013-10-07,55.336,55.336,53.064,54.106,0,0
2013-10-08,53.754,54.199,53.414,53.414,0,0
2013-10-09,53.233,53.414,53.064,53.319,0,0
2013-10-10,52.969,55.943,51.141,55.943,0,0
2013-10-11,55.943,55.943,54.806,55.772,0,0
2013-10-14,55.943,55.943,55.507,55.772,0,0
2013-10-15,55.857,55.943,54.636,55.241,0,0
2013-10-16,54.891,55.241,54.891,55.241,0,0
2013-10-17,55.241,55.241,54.636,54.636,0,0
2013-10-18,54.806,55.507,54.199,55.507,0,0
2013-10-21,54.891,55.943,53.935,55.943,0,0
2013-10-22,55.943,58.216,55.157,57.429,0,0
2013-10-23,57.259,58.13,56.823,57.695,0,0
2013-10-24,58.566,58.566,57.695,58.566,0,0
2013-10-25,58.566,59.352,57.959,58.48,0,0
2013-10-28,58.13,61.189,58.045,60.753,0,0
2013-10-29,60.753,61.54,60.318,61.189,0,0
2013-10-30,61.625,62.847,61.274,61.274,0,0
2013-10-31,60.403,60.925,60.318,60.925,0,0
2013-11-04,61.454,62.061,61.189,61.625,0,0
2013-11-05,61.274,61.454,61.274,61.274,0,0
2013-11-06,61.189,61.625,59.882,61.625,0,0
2013-11-07,61.625,62.061,60.839,62.061,0,0
2013-11-08,61.891,62.061,59.882,60.053,0,0
2013-11-12,59.967,61.019,57.959,61.019,0,0
2013-11-13,61.019,61.189,60.839,61.189,0,0
2013-11-14,61.189,61.274,60.488,61.189,0,0
2013-11-15,61.274,65.3,61.189,64.248,0,0
2013-11-18,65.564,65.564,64.334,64.684,0,0
2013-11-19,63.984,68.624,63.984,68.624,0,0
2013-11-20,68.624,68.793,66,68.008,0,0
2013-11-21,67.657,67.657,66.521,67.222,0,0
2013-11-22,67.222,68.358,67.222,68.094,0,0
2013-11-25,68.094,68.529,68.094,68.179,0,0
2013-11-26,68.094,68.709,64.598,66.436,0,0
2013-11-27,64.684,66.436,64.248,64.248,0,0
2013-11-28,64.248,65.564,62.411,63.547,0,0
2013-11-29,63.547,63.547,61.71,63.463,0,0
2013-12-02,64.334,64.684,63.377,63.463,0,0
2013-12-03,63.463,63.463,62.676,63.377,0,0
2013-12-04,62.24,62.506,61.37,62.506,0,0
2013-12-05,62.24,63.377,62.24,62.676,0,0
2013-12-06,62.061,62.061,55.943,61.975,0,0
2013-12-09,61.975,62.24,61.37,62.24,0,0
2013-12-10,62.326,62.326,61.189,62.24,0,0
2013-12-11,62.326,63.377,61.37,62.942,0,0
2013-12-12,63.292,63.292,61.019,62.506,0,0
2013-12-13,61.625,62.942,61.37,62.942,0,0
2013-12-16,62.942,62.942,61.454,61.625,0,0
2013-12-17,61.625,61.625,59.437,59.437,0,0
2013-12-18,60.233,60.669,58.651,60.574,0,0
2013-12-19,59.882,60.574,59.882,60.574,0,0
2013-12-20,60.574,60.574,56.823,60.233,0,0
2013-12-23,61.019,61.019,60.233,60.574,0,0
2013-12-27,60.574,60.574,60.574,60.574,0,0
2013-12-30,60.318,61.189,59.352,60.233,0,0
2014-01-02,61.454,61.454,60.753,61.019,0,0
2014-01-03,61.019,61.37,61.019,61.274,0,0
2014-01-07,61.189,61.189,59.532,59.967,0,0
2014-01-08,59.882,61.104,59.882,61.104,0,0
2014-01-09,60.753,60.753,60.574,60.574,0,0
2014-01-10,60.669,63.813,60.138,60.574,0,0
2014-01-13,61.189,63.727,61.189,63.727,0,0
2014-01-14,61.625,62.942,61.625,62.942,0,0
2014-01-15,62.942,63.292,62.061,62.061,0,0
2014-01-16,62.155,62.506,62.061,62.061,0,0
2014-01-17,62.155,62.155,62.061,62.061,0,0
2014-01-20,62.061,62.411,62.061,62.061,0,0
2014-01-21,62.061,64.163,62.061,63.292,0,0
2014-01-22,63.813,65.034,63.292,63.984,0,0
2014-01-23,64.684,66.607,63.984,66.256,0,0
2014-01-24,66.436,67.042,66.256,66.871,0,0
2014-01-27,65.906,66.871,65.214,66.871,0,0
2014-01-28,66.607,69.931,65.735,69.06,0,0
2014-01-29,71.683,71.853,70.196,71.417,0,0
2014-01-30,71.152,76.314,70.366,75.698,0,0
2014-01-31,76.314,76.314,75.092,75.613,0,0
2014-02-03,75.613,77.8,75.613,76.75,0,0
2014-02-04,76.484,76.579,75.784,75.963,0,0
2014-02-05,74.307,74.307,72.819,73.776,0,0
2014-02-06,73.691,73.691,71.152,71.152,0,0
2014-02-07,72.289,72.289,70.451,70.801,0,0
2014-02-10,70.801,71.938,70.111,70.111,0,0
2014-02-11,70.366,71.853,68.358,69.845,0,0
2014-02-12,69.845,73.425,69.845,72.553,0,0
2014-02-13,72.904,73.17,72.118,73.17,0,0
2014-02-14,72.989,73.074,71.417,72.118,0,0
2014-02-17,71.332,71.588,70.451,71.417,0,0
2014-02-18,70.451,71.768,69.495,70.801,0,0
2014-02-19,71.588,71.588,69.759,70.801,0,0
2014-02-20,70.801,71.588,70.631,70.801,0,0
2014-02-21,70.016,71.247,69.931,71.247,0,0
2014-02-24,70.451,71.503,70.451,70.801,0,0
2014-02-25,70.801,70.801,69.314,69.495,0,0
2014-02-26,69.845,69.845,67.392,67.392,0,0
2014-02-27,67.308,67.308,64.684,65.821,0,0
2014-02-28,64.864,67.308,64.864,67.308,0,0
2014-03-03,65.3,65.3,60.669,62.061,0,0
2014-03-04,61.625,63.727,61.625,63.377,0,0
2014-03-05,64.248,65.564,63.727,65.564,0,0
2014-03-06,65.119,65.564,63.813,63.813,0,0
2014-03-07,63.898,63.898,62.942,62.942,0,0
2014-03-10,61.805,62.942,60.318,61.104,0,0
2014-03-11,61.104,62.676,60.403,62.676,0,0
2014-03-12,62.24,62.24,61.019,61.189,0,0
2014-03-13,61.104,61.625,60.839,61.54,0,0
2014-03-14,61.54,61.54,59.001,59.001,0,0
2014-03-17,58.747,60.318,58.747,60.318,0,0
2014-03-18,60.318,60.669,60.318,60.669,0,0
2014-03-19,60.753,65.564,60.669,65.564,0,0
2014-03-20,66.351,67.743,64.684,66.871,0,0
2014-03-21,67.308,67.573,66.521,67.042,0,0
2014-03-24,66.957,66.957,63.377,64.429,0,0
2014-03-25,63.898,64.949,63.898,64.949,0,0
2014-03-26,64.949,64.949,63.727,64.429,0,0
2014-03-27,64.248,64.248,63.111,63.111,0,0
2014-03-28,62.942,62.942,60.925,61.189,0,0
2014-03-31,61.104,64.163,60.669,64.163,0,0
2014-04-01,64.163,64.163,60.669,61.189,0,0
2014-04-02,61.189,61.189,59.787,60.574,0,0
2014-04-03,59.617,61.189,59.617,61.189,0,0
2014-04-04,60.233,61.71,60.053,61.274,0,0
2014-04-07,60.318,60.318,59.787,59.787,0,0
2014-04-08,60.233,60.233,59.882,59.882,0,0
2014-04-09,59.967,60.233,59.967,59.967,0,0
2014-04-10,60.233,60.233,59.703,59.882,0,0
2014-04-11,59.703,59.787,59.001,59.532,0,0
2014-04-14,59.268,59.268,58.302,58.302,0,0
2014-04-15,56.472,57.259,55.943,55.943,0,0
2014-04-16,55.687,55.687,53.754,55.241,0,0
2014-04-17,55.507,55.507,54.636,54.636,0,0
2014-04-22,54.636,56.823,54.636,56.823,0,0
2014-04-23,56.823,57.429,55.943,55.943,0,0
2014-04-24,55.772,56.027,54.636,54.636,0,0
2014-04-25,54.72,55.157,54.636,54.636,0,0
2014-04-28,55.157,55.157,55.157,55.157,0,0
2014-04-29,55.857,55.857,55.507,55.507,0,0
2014-04-30,55.687,55.687,54.891,54.891,0,0
2014-05-02,55.507,55.507,54.806,54.806,0,0
2014-05-05,55.507,55.507,53.754,53.754,0,0
2014-05-06,54.021,54.021,53.064,53.754,0,0
2014-05-07,53.754,53.754,50.61,52.363,0,0
2014-05-08,52.183,52.183,51.576,51.576,0,0
2014-05-09,50.961,50.961,49.389,49.389,0,0
2014-05-12,48.517,49.123,48.167,49.123,0,0
2014-05-13,48.953,49.389,48.953,48.953,0,0
2014-05-14,49.474,49.825,48.953,48.953,0,0
2014-05-15,50.261,51.927,50.261,51.227,0,0
2014-05-16,50.261,51.746,50.175,50.876,0,0
2014-05-19,50.876,51.227,50.089,50.089,0,0
2014-05-20,50.089,50.355,49.123,50.355,0,0
2014-05-21,49.038,50.355,48.953,50.355,0,0
2014-05-22,50.175,50.79,49.219,50.79,0,0
2014-05-23,50.79,50.79,49.825,50.261,0,0
2014-05-26,51.047,51.047,50.261,50.261,0,0
2014-05-27,50.261,50.79,50.261,50.696,0,0
2014-05-28,50.696,51.746,50.696,50.79,0,0
2014-05-29,50.61,51.227,50.61,50.876,0,0
2014-05-30,50.961,50.961,50.961,50.961,0,0
2014-06-02,51.662,51.662,51.141,51.141,0,0
2014-06-03,51.746,52.013,50.175,51.141,0,0
2014-06-04,51.141,51.576,51.141,51.576,0,0
2014-06-05,51.397,52.448,51.397,52.013,0,0
2014-06-06,52.448,52.448,51.576,52.448,0,0
2014-06-09,52.448,52.448,52.013,52.013,0,0
2014-06-10,52.098,52.098,52.098,52.098,0,0
2014-06-11,52.098,52.183,51.662,51.662,0,0
2014-06-12,51.832,51.832,51.492,51.492,0,0
2014-06-13,50.526,50.961,50.526,50.961,0,0
2014-06-16,50.44,50.44,50.44,50.44,0,0
2014-06-17,50.44,50.44,50.44,50.44,0,0
2014-06-18,50.44,50.696,50.44,50.696,0,0
2014-06-20,50.355,50.696,49.825,50.696,0,0
2014-06-23,50.089,51.576,50.089,50.696,0,0
2014-06-24,52.448,52.448,51.397,51.397,0,0
2014-06-25,50.961,50.961,49.123,50.961,0,0
2014-06-26,56.625,56.625,52.847,53.656,0,0
2014-06-27,53.656,53.656,53.032,53.032,0,0
2014-06-30,52.584,52.584,51.503,52.486,0,0
2014-07-01,51.503,51.503,50.783,50.783,0,0
2014-07-03,50.335,51.055,49.887,50.783,0,0
2014-07-04,50.783,50.783,49.887,49.887,0,0
2014-07-07,49.789,49.789,48.085,49.254,0,0
2014-07-08,49.341,49.341,48.533,48.981,0,0
2014-07-10,48.271,48.271,47.189,47.997,0,0
2014-07-11,46.917,48.271,46.741,48.271,0,0
2014-07-14,47.189,48.981,47.189,48.533,0,0
2014-07-15,48.533,48.533,47.453,48.085,0,0
2014-07-16,47.997,48.445,47.277,48.445,0,0
2014-07-17,46.741,48.445,46.741,48.445,0,0
2014-07-18,48.445,48.806,47.189,48.806,0,0
2014-07-21,48.806,48.806,47.637,48.445,0,0
2014-07-22,47.725,48.271,46.917,48.271,0,0
2014-07-23,47.997,47.997,47.189,47.189,0,0
2014-07-24,46.917,47.005,46.917,46.917,0,0
2014-07-25,46.381,46.557,45.933,45.933,0,0
2014-07-28,46.284,46.741,46.284,46.284,0,0
2014-07-29,46.284,47.453,45.388,47.453,0,0
2014-07-30,47.005,47.005,47.005,47.005,0,0
2014-07-31,46.644,46.644,46.644,46.644,0,0
2014-08-01,46.021,46.741,45.661,46.196,0,0
2014-08-04,46.284,46.284,46.109,46.109,0,0
2014-08-05,46.741,47.189,44.58,44.667,0,0
2014-08-06,44.58,44.852,43.859,43.859,0,0
2014-08-07,43.859,43.859,42.242,42.242,0,0
2014-08-08,42.242,42.242,41.074,41.522,0,0
2014-08-11,43.772,43.772,41.97,41.97,0,0
2014-08-12,42.69,42.69,42.428,42.428,0,0
2014-08-13,41.882,42.602,41.882,42.602,0,0
2014-08-14,41.162,42.068,40.451,42.068,0,0
2014-08-18,42.068,42.068,41.794,41.794,0,0
2014-08-19,41.882,41.97,41.882,41.97,0,0
2014-08-20,42.155,42.33,42.155,42.33,0,0
2014-08-21,42.33,44.667,42.33,44.667,0,0
2014-08-22,45.028,46.557,44.404,44.492,0,0
2014-08-25,45.213,47.453,45.213,46.196,0,0
2014-08-26,46.469,49.702,46.469,47.189,0,0
2014-08-27,47.549,49.702,47.549,49.614,0,0
2014-08-28,49.702,49.702,45.836,47.189,0,0
2014-08-29,47.189,47.189,46.196,46.644,0,0
2014-09-01,46.644,46.741,45.573,45.573,0,0
2014-09-02,45.573,45.573,45.388,45.475,0,0
2014-09-03,45.748,46.917,45.748,46.109,0,0
2014-09-04,46.381,47.101,46.381,46.381,0,0
2014-09-05,46.741,46.741,44.94,45.661,0,0
2014-09-08,45.115,46.644,45.115,46.644,0,0
2014-09-09,46.644,47.909,46.021,47.909,0,0
2014-09-10,47.637,49.439,47.637,49.166,0,0
2014-09-11,48.893,48.893,45.388,45.933,0,0
2014-09-12,46.741,47.189,46.109,46.109,0,0
2014-09-15,46.557,47.365,46.557,47.365,0,0
2014-09-16,47.365,48.719,47.189,47.637,0,0
2014-09-17,48.445,48.445,47.637,47.637,0,0
2014-09-18,47.277,47.725,47.277,47.725,0,0
2014-09-19,48.358,48.621,47.909,48.533,0,0
2014-09-22,48.445,48.533,48.445,48.533,0,0
2014-09-23,48.085,48.085,45.475,46.917,0,0
2014-09-24,46.557,46.557,45.388,45.388,0,0
2014-09-25,45.475,47.005,45.388,47.005,0,0
2014-09-29,46.741,46.741,46.557,46.557,0,0
2014-09-30,46.557,47.189,46.284,47.189,0,0
2014-10-01,46.469,46.469,46.109,46.109,0,0
2014-10-02,45.748,45.836,45.661,45.661,0,0
2014-10-03,45.661,46.741,45.661,46.741,0,0
2014-10-06,46.741,46.741,45.836,45.933,0,0
2014-10-07,45.836,46.284,45.836,46.021,0,0
2014-10-08,46.021,46.021,46.021,46.021,0,0
2014-10-09,45.933,45.933,44.667,44.667,0,0
2014-10-10,44.94,44.94,42.242,42.69,0,0
2014-10-13,42.69,43.138,42.69,43.05,0,0
2014-10-14,43.138,43.138,42.516,42.69,0,0
2014-10-15,43.138,43.138,42.068,42.155,0,0
2014-10-16,42.428,42.428,40.451,40.899,0,0
2014-10-17,41.162,42.33,40.899,42.242,0,0
2014-10-20,42.242,42.242,41.882,41.882,0,0
2014-10-21,41.794,42.242,41.794,42.242,0,0
2014-10-22,41.794,42.788,41.794,42.788,0,0
2014-10-23,42.602,42.602,42.068,42.068,0,0
2014-10-24,42.69,44.044,42.69,43.138,0,0
2014-10-27,43.138,43.859,43.138,43.684,0,0
2014-10-28,43.324,45.115,43.324,44.852,0,0
2014-10-29,45.748,45.748,44.492,44.492,0,0
2014-10-30,45.213,45.213,44.132,44.852,0,0
2014-10-31,44.58,44.58,44.132,44.132,0,0
2014-11-03,44.132,44.492,43.956,43.956,0,0
2014-11-04,43.956,44.044,43.772,43.772,0,0
2014-11-05,44.044,44.044,44.044,44.044,0,0
2014-11-06,43.772,44.765,43.596,43.596,0,0
2014-11-07,44.404,44.404,43.138,43.138,0,0
2014-11-10,42.788,42.788,42.602,42.69,0,0
2014-11-12,42.69,43.956,42.69,43.596,0,0
2014-11-13,42.964,43.05,42.964,43.05,0,0
2014-11-14,43.138,43.138,43.05,43.05,0,0
2014-11-17,43.138,43.138,41.97,41.97,0,0
2014-11-18,42.068,42.068,41.97,41.97,0,0
2014-11-19,42.242,42.242,41.259,41.259,0,0
2014-11-20,41.259,41.259,39.545,39.545,0,0
2014-11-21,40.451,40.451,38.465,38.465,0,0
2014-11-24,38.465,38.465,37.295,37.481,0,0
2014-11-25,38.113,38.113,35.952,35.952,0,0
2014-11-26,36.039,37.295,36.039,37.033,0,0
2014-11-27,37.033,37.295,37.033,37.295,0,0
2014-11-28,37.209,37.753,36.847,37.295,0,0
2014-12-01,37.033,37.657,36.847,37.657,0,0
2014-12-02,37.569,38.465,37.569,37.841,0,0
2014-12-03,39.097,40.266,39.097,40.266,0,0
2014-12-04,41.434,41.434,40.802,41.346,0,0
2014-12-05,41.346,42.428,39.545,40.538,0,0
2014-12-08,39.545,39.545,36.847,39.457,0,0
2014-12-09,38.737,38.922,38.649,38.825,0,0
2014-12-10,38.201,38.201,36.4,38.113,0,0
2014-12-11,36.847,37.753,36.847,37.753,0,0
2014-12-12,36.945,37.753,36.761,37.753,0,0
2014-12-15,38.113,38.113,38.113,38.113,0,0
2014-12-16,37.295,37.295,36.4,36.4,0,0
2014-12-17,36.4,36.4,35.952,35.952,0,0
2014-12-18,35.952,36.673,35.952,35.952,0,0
2014-12-19,36.673,36.673,36.127,36.127,0,0
2014-12-22,36.487,36.487,34.783,35.591,0,0
2014-12-23,35.591,35.591,33.167,35.056,0,0
2014-12-29,34.696,35.865,34.696,35.417,0,0
2014-12-30,35.952,36.127,35.679,36.127,0,0
2015-01-02,35.679,35.777,35.679,35.679,0,0
2015-01-05,35.591,35.591,35.417,35.417,0,0
2015-01-07,35.417,35.952,35.417,35.952,0,0
2015-01-08,35.952,36.847,35.952,36.847,0,0
2015-01-09,36.847,39.282,36.847,37.393,0,0
2015-01-12,37.481,39.993,37.481,39.993,0,0
2015-01-13,40.354,40.354,39.37,39.37,0,0
2015-01-14,39.185,39.185,39.097,39.097,0,0
2015-01-15,38.737,39.545,38.377,39.545,0,0
2015-01-16,38.737,40.451,38.737,40.451,0,0
2015-01-19,40.899,40.899,39.545,39.545,0,0
2015-01-20,40.091,40.091,39.097,39.097,0,0
2015-01-21,38.922,38.922,38.922,38.922,0,0
2015-01-22,38.922,38.922,38.922,38.922,0,0
2015-01-23,38.922,39.37,38.649,38.649,0,0
2015-01-26,39.282,39.282,39.282,39.282,0,0
2015-01-27,39.282,39.282,39.282,39.282,0,0
2015-01-28,39.282,39.282,38.017,38.017,0,0
2015-01-29,38.465,38.465,38.465,38.465,0,0
2015-01-30,38.201,38.377,38.201,38.377,0,0
2015-02-02,38.377,38.465,37.753,37.753,0,0
2015-02-03,37.569,37.929,37.393,37.929,0,0
2015-02-04,38.465,40.714,38.465,39.993,0,0
2015-02-05,40.354,40.354,39.993,39.993,0,0
2015-02-06,39.993,40.451,39.37,40.451,0,0
2015-02-09,40.538,42.428,40.451,40.451,0,0
2015-02-10,40.899,42.155,40.451,42.155,0,0
2015-02-11,42.155,43.772,41.882,42.242,0,0
2015-02-12,43.138,44.044,43.138,43.956,0,0
2015-02-13,44.044,46.917,44.044,45.933,0,0
2015-02-16,45.933,45.933,43.684,44.94,0,0
2015-02-17,45.388,45.388,43.859,43.859,0,0
2015-02-18,43.956,44.044,41.794,43.684,0,0
2015-02-19,42.964,43.138,42.964,43.138,0,0
2015-02-20,43.236,43.956,42.428,43.956,0,0
2015-02-23,43.956,45.661,43.956,45.661,0,0
2015-02-24,45.748,47.005,45.028,45.388,0,0
2015-02-25,46.381,46.381,45.213,45.573,0,0
2015-02-26,46.021,49.166,45.836,49.079,0,0
2015-02-27,49.341,52.399,49.341,50.958,0,0
2015-03-02,49.702,50.958,49.439,50.247,0,0
2015-03-03,49.887,51.416,46.741,48.533,0,0
2015-03-04,46.741,48.893,46.469,47.997,0,0
2015-03-05,48.271,50.062,47.909,49.166,0,0
2015-03-06,49.166,49.887,47.813,49.887,0,0
2015-03-09,50.062,51.23,49.341,50.335,0,0
2015-03-10,49.887,49.887,48.173,49.527,0,0
2015-03-11,48.358,48.358,45.933,48.085,0,0
2015-03-12,47.277,47.277,46.557,46.557,0,0
2015-03-13,46.741,46.741,45.836,46.109,0,0
2015-03-16,46.284,47.189,46.284,47.005,0,0
2015-03-17,47.189,48.445,46.741,47.909,0,0
2015-03-18,48.533,49.341,47.725,47.725,0,0
2015-03-19,47.453,47.453,46.741,47.453,0,0
2015-03-20,46.829,46.829,43.411,43.596,0,0
2015-03-23,44.765,45.836,43.138,44.044,0,0
2015-03-24,43.684,44.94,43.684,44.94,0,0
2015-03-25,44.94,44.94,43.411,44.667,0,0
2015-03-26,44.667,44.94,43.236,44.765,0,0
2015-03-30,44.94,44.94,44.94,44.94,0,0
2015-03-31,44.94,44.94,44.044,44.94,0,0
2015-04-01,44.852,44.852,43.411,44.852,0,0
2015-04-02,43.138,44.852,43.138,44.852,0,0
2015-04-07,44.492,44.667,43.684,44.667,0,0
2015-04-08,43.596,44.492,43.411,44.492,0,0
2015-04-09,44.404,44.404,43.138,44.22,0,0
2015-04-10,44.667,44.667,43.859,43.859,0,0
2015-04-13,43.324,44.044,43.324,44.044,0,0
2015-04-14,44.667,44.667,44.044,44.044,0,0
2015-04-15,43.596,43.596,43.324,43.324,0,0
2015-04-16,43.498,44.044,43.498,43.859,0,0
2015-04-17,44.044,44.58,43.324,43.324,0,0
2015-04-20,43.324,43.596,43.324,43.324,0,0
2015-04-21,43.411,43.411,42.876,42.876,0,0
2015-04-22,42.602,43.324,42.428,43.324,0,0
2015-04-23,43.596,43.596,43.596,43.596,0,0
2015-04-24,43.236,43.236,43.236,43.236,0,0
2015-04-27,43.236,43.596,43.138,43.596,0,0
2015-04-28,44.492,44.492,43.859,43.859,0,0
2015-04-29,43.859,46.284,43.772,45.836,0,0
2015-04-30,45.573,45.573,42.516,44.852,0,0
2015-05-04,44.765,44.765,44.492,44.492,0,0
2015-05-05,44.58,44.58,44.044,44.58,0,0
2015-05-06,44.58,44.58,42.69,44.404,0,0
2015-05-07,44.404,44.404,43.324,44.404,0,0
2015-05-08,44.22,44.404,44.22,44.404,0,0
2015-05-11,44.22,44.852,44.22,44.852,0,0
2015-05-12,44.852,44.852,44.852,44.852,0,0
2015-05-13,44.044,44.044,43.596,43.596,0,0
2015-05-14,43.956,44.852,43.596,44.852,0,0
2015-05-15,44.492,44.667,44.044,44.667,0,0
2015-05-18,43.772,44.667,43.772,44.667,0,0
2015-05-19,44.94,46.741,43.859,46.741,0,0
2015-05-20,46.741,46.741,45.028,46.196,0,0
2015-05-21,46.196,46.196,45.661,46.196,0,0
2015-05-22,45.836,46.741,45.475,46.741,0,0
2015-05-25,46.644,46.741,43.859,43.859,0,0
2015-05-26,44.492,44.852,44.404,44.852,0,0
2015-05-27,44.852,46.644,44.852,46.557,0,0
2015-05-28,46.557,49.254,46.557,49.254,0,0
2015-05-29,49.341,50.958,48.358,48.358,0,0
2015-06-01,50.335,55.729,49.887,55.729,0,0
2015-06-02,55.729,55.729,52.584,53.752,0,0
2015-06-03,54.113,58.427,54.113,57.521,0,0
2015-06-05,56.985,58.067,55.272,57.073,0,0
2015-06-08,58.155,58.689,55.369,55.544,0,0
2015-06-09,55.817,56.44,55.272,55.272,0,0
2015-06-10,53.656,55.905,53.656,55.096,0,0
2015-06-11,54.648,55.369,54.648,55.369,0,0
2015-06-12,55.729,55.729,55.009,55.009,0,0
2015-06-15,55.009,55.369,54.824,55.369,0,0
2015-06-16,55.009,55.272,54.921,54.921,0,0
2015-06-17,54.824,56.177,54.824,55.096,0,0
2015-06-18,55.184,56.898,55.096,56.898,0,0
2015-06-19,56.625,58.777,56.625,57.707,0,0
2015-06-22,58.515,58.515,56.898,56.898,0,0
2015-06-23,57.794,57.794,56.09,56.44,0,0
2015-06-24,55.905,56.177,55.729,55.729,0,0
2015-06-25,55.729,55.729,55.729,55.729,0,0
2015-06-26,55.729,56.625,54.464,54.464,0,0
2015-06-29,48.729,53.554,48.729,53.554,0,0
2015-06-30,53.742,53.742,53.742,53.742,0,0
2015-07-01,52.37,53.742,52.192,53.742,0,0
2015-07-02,54.195,54.195,53.554,53.554,0,0
2015-07-03,52.37,54.008,52.37,54.008,0,0
2015-07-06,54.008,54.008,51.551,53.554,0,0
2015-07-07,53.554,53.919,53.376,53.919,0,0
2015-07-08,53.83,53.83,53.83,53.83,0,0
2015-07-09,53.554,53.554,53.465,53.465,0,0
2015-07-10,53.011,53.465,52.824,53.011,0,0
2015-07-13,53.011,53.554,53.011,53.554,0,0
2015-07-14,53.189,54.373,53.189,54.195,0,0
2015-07-15,54.373,54.373,52.824,54.107,0,0
2015-07-16,54.195,54.195,52.735,53.288,0,0
2015-07-17,52.37,52.824,52.281,52.37,0,0
2015-07-20,49.824,51.916,49.271,51.916,0,0
2015-07-21,51.186,52.37,51.186,52.37,0,0
2015-07-22,52.469,52.469,50.1,51.916,0,0
2015-07-23,51.916,52.281,51.462,51.916,0,0
2015-07-24,52.281,52.824,52.005,52.005,0,0
2015-07-27,52.005,52.005,51.186,52.005,0,0
2015-07-28,52.646,52.646,52.005,52.005,0,0
2015-07-29,52.103,53.653,52.103,53.653,0,0
2015-07-30,53.554,54.195,52.824,54.195,0,0
2015-07-31,54.195,54.195,53.554,53.742,0,0
2015-08-03,53.742,53.742,53.742,53.742,0,0
2015-08-04,53.554,54.561,53.554,54.561,0,0
2015-08-05,54.561,58.843,53.1,54.649,0,0
2015-08-06,54.107,54.561,53.554,54.561,0,0
2015-08-07,54.649,54.649,52.922,54.008,0,0
2015-08-10,54.008,54.008,52.469,54.008,0,0
2015-08-11,52.824,54.008,52.824,54.008,0,0
2015-08-12,53.554,54.284,52.922,54.284,0,0
2015-08-13,54.649,54.649,52.824,53.742,0,0
2015-08-14,52.824,52.922,52.103,52.103,0,0
2015-08-17,52.103,53.742,52.103,53.742,0,0
2015-08-18,51.738,54.472,51.738,52.005,0,0
2015-08-19,52.103,52.103,52.103,52.103,0,0
2015-08-20,52.103,54.107,52.103,54.107,0,0
2015-08-21,53.919,53.919,53.919,53.919,0,0
2015-08-24,52.557,52.557,49.005,50.1,0,0
2015-08-25,50.1,51.462,49.182,50.1,0,0
2015-08-26,47.544,48.186,46.183,48.186,0,0
2015-08-27,47.09,48.186,47.09,48.186,0,0
2015-08-28,48.087,48.087,48.087,48.087,0,0
2015-08-31,47.544,47.544,47.09,47.09,0,0
2015-09-01,46.449,46.814,45.541,46.814,0,0
2015-09-02,46.725,46.814,45.541,46.814,0,0
2015-09-03,46.814,47.821,46.183,47.821,0,0
2015-09-04,47.732,48.275,47.732,48.087,0,0
2015-09-07,48.186,48.186,47.002,47.09,0,0
2015-09-08,46.903,47.367,46.271,47.367,0,0
2015-09-09,47.002,48.186,47.002,47.367,0,0
2015-09-10,47.909,48.729,47.909,48.275,0,0
2015-09-11,48.729,48.729,48.275,48.275,0,0
2015-09-14,48.729,48.729,48.275,48.275,0,0
2015-09-15,48.729,49.37,47.909,48.64,0,0
2015-09-16,49.37,49.37,49.182,49.182,0,0
2015-09-17,49.005,49.094,49.005,49.094,0,0
2015-09-18,49.37,49.37,48.817,48.817,0,0
2015-09-21,48.452,49.182,48.452,48.729,0,0
2015-09-22,48.64,48.729,48.64,48.729,0,0
2015-09-23,48.186,49.182,48.186,49.182,0,0
2015-09-24,48.186,48.186,48.186,48.186,0,0
2015-09-25,48.64,48.64,46.449,47.367,0,0
2015-09-28,47.367,47.367,46.903,47.179,0,0
2015-09-29,47.633,47.633,45.906,45.906,0,0
2015-09-30,45.906,45.906,45.906,45.906,0,0
2015-10-01,46.36,46.36,41.989,41.989,0,0
2015-10-02,41.9,43.173,40.351,42.995,0,0
2015-10-05,43.173,43.262,42.808,42.808,0,0
2015-10-06,43.262,46.637,43.262,46.637,0,0
2015-10-07,45.995,45.995,45.995,45.995,0,0
2015-10-08,46.271,46.271,46.271,46.271,0,0
2015-10-09,45.541,45.63,43.903,45.63,0,0
2015-10-12,44.633,44.811,44.633,44.811,0,0
2015-10-13,44.633,44.633,44.446,44.446,0,0
2015-10-14,43.814,44.633,43.449,44.633,0,0
2015-10-15,43.716,44.633,43.716,43.716,0,0
2015-10-16,43.538,43.716,42.63,43.716,0,0
2015-10-19,43.716,43.716,43.716,43.716,0,0
2015-10-20,44.081,44.081,43.538,43.538,0,0
2015-10-21,42.719,42.719,42.719,42.719,0,0
2015-10-22,43.716,43.716,43.627,43.627,0,0
2015-10-23,44.081,44.081,44.081,44.081,0,0
2015-10-26,43.716,43.716,43.716,43.716,0,0
2015-10-27,43.716,43.716,43.627,43.627,0,0
2015-10-28,43.992,43.992,43.173,43.173,0,0
2015-10-29,43.173,43.173,42.808,42.808,0,0
2015-10-30,42.354,43.538,42.354,43.538,0,0
2015-11-02,43.992,43.992,42.808,42.808,0,0
2015-11-03,42.808,42.808,42.808,42.808,0,0
2015-11-04,42.808,42.808,42.354,42.808,0,0
2015-11-05,43.449,43.449,43.449,43.449,0,0
2015-11-06,43.084,43.538,42.808,43.173,0,0
2015-11-09,43.173,43.538,42.531,42.808,0,0
2015-11-10,43.716,43.716,41.624,43.716,0,0
2015-11-12,43.716,43.716,43.716,43.716,0,0
2015-11-13,41.9,41.9,40.992,40.992,0,0
2015-11-16,40.804,40.804,38.979,39.709,0,0
2015-11-17,38.979,39.344,38.259,39.344,0,0
2015-11-18,39.166,39.344,38.436,39.255,0,0
2015-11-19,38.436,38.436,38.347,38.347,0,0
2015-11-20,37.982,38.712,37.795,38.712,0,0
2015-11-23,38.712,39.255,38.712,39.255,0,0
2015-11-24,39.443,40.074,39.344,39.344,0,0
2015-11-25,40.074,40.074,37.795,38.712,0,0
2015-11-26,38.525,39.255,38.525,39.255,0,0
2015-11-27,38.89,38.89,38.89,38.89,0,0
2015-11-30,38.89,38.89,38.801,38.801,0,0
2015-12-01,38.801,39.166,37.982,39.166,0,0
2015-12-02,39.166,39.709,38.89,39.078,0,0
2015-12-03,38.801,39.078,38.801,38.801,0,0
2015-12-04,38.347,38.979,37.528,38.979,0,0
2015-12-07,38.259,38.259,38.259,38.259,0,0
2015-12-08,38.259,38.259,38.259,38.259,0,0
2015-12-09,38.624,38.624,38.259,38.259,0,0
2015-12-10,38.436,38.436,38.259,38.436,0,0
2015-12-11,38.436,38.436,38.436,38.436,0,0
2015-12-14,38.979,38.979,36.433,38.259,0,0
2015-12-15,37.341,37.706,37.341,37.706,0,0
2015-12-16,37.893,37.893,37.893,37.893,0,0
2015-12-17,36.887,36.887,34.607,36.255,0,0
2015-12-18,34.972,36.068,34.972,36.068,0,0
2015-12-21,35.703,35.703,35.703,35.703,0,0
2015-12-22,35.89,35.89,35.071,35.436,0,0
2015-12-23,34.706,35.436,34.706,35.436,0,0
2015-12-28,34.706,35.338,34.706,34.706,0,0
2015-12-29,35.525,35.89,35.525,35.89,0,0
2015-12-30,35.89,35.89,34.795,34.795,0,0
2016-01-04,34.795,34.795,34.795,34.795,0,0
2016-01-05,34.884,34.884,34.607,34.607,0,0
2016-01-07,34.607,34.607,34.607,34.607,0,0
2016-01-08,34.795,34.795,34.795,34.795,0,0
2016-01-11,34.795,34.884,34.795,34.884,0,0
2016-01-12,35.071,35.16,35.071,35.16,0,0
2016-01-13,35.071,35.703,35.071,35.703,0,0
2016-01-14,35.703,35.703,35.16,35.614,0,0
2016-01-15,34.884,34.884,34.607,34.607,0,0
2016-01-18,34.607,34.607,33.976,33.976,0,0
2016-01-19,33.976,34.519,33.976,34.153,0,0
2016-01-20,34.153,34.153,33.246,33.246,0,0
2016-01-21,33.522,33.611,33.522,33.611,0,0
2016-01-22,33.522,35.436,33.522,35.436,0,0
2016-01-25,35.525,35.525,35.525,35.525,0,0
2016-01-26,35.338,35.338,35.338,35.338,0,0
2016-01-27,35.338,35.979,34.972,35.979,0,0
2016-01-28,37.252,37.252,36.433,36.433,0,0
2016-02-01,36.433,36.433,36.433,36.433,0,0
2016-02-02,36.433,36.433,35.89,36.255,0,0
2016-02-03,36.255,36.433,35.614,36.433,0,0
2016-02-04,36.433,36.433,36.433,36.433,0,0
2016-02-05,36.433,36.433,36.344,36.344,0,0
2016-02-08,36.433,36.433,36.433,36.433,0,0
2016-02-10,36.433,36.433,36.433,36.433,0,0
2016-02-11,36.433,36.433,36.433,36.433,0,0
2016-02-12,36.433,36.433,36.433,36.433,0,0
2016-02-15,36.344,36.344,36.344,36.344,0,0
2016-02-16,36.255,36.255,36.255,36.255,0,0
2016-02-17,36.344,36.344,35.703,35.703,0,0
2016-02-18,35.703,36.255,35.703,36.157,0,0
2016-02-19,36.344,37.341,36.344,37.341,0,0
2016-02-22,37.341,37.341,36.433,36.433,0,0
2016-02-23,36.433,36.433,36.433,36.433,0,0
2016-02-24,37.252,37.252,36.709,36.709,0,0
2016-02-25,36.709,36.709,35.525,35.525,0,0
2016-02-26,36.433,36.433,36.068,36.255,0,0
2016-02-29,36.433,36.433,36.068,36.068,0,0
2016-03-01,36.068,36.157,35.89,36.157,0,0
2016-03-04,36.433,36.433,36.433,36.433,0,0
2016-03-07,36.611,37.795,36.611,37.795,0,0
2016-03-08,36.976,36.976,36.976,36.976,0,0
2016-03-09,36.798,36.798,36.798,36.798,0,0
2016-03-10,36.709,36.709,36.709,36.709,0,0
2016-03-11,36.709,36.709,36.709,36.709,0,0
2016-03-14,36.611,36.611,36.433,36.433,0,0
2016-03-15,36.344,36.344,36.344,36.344,0,0
2016-03-16,36.157,36.157,36.157,36.157,0,0
2016-03-17,36.157,36.157,36.068,36.068,0,0
2016-03-18,36.068,36.522,36.068,36.522,0,0
2016-03-21,36.522,36.522,36.157,36.522,0,0
2016-03-22,36.433,36.522,36.255,36.522,0,0
2016-03-23,36.709,37.795,36.344,37.795,0,0
2016-03-24,37.252,38.712,37.252,38.712,0,0
2016-03-29,39.166,39.166,38.071,38.071,0,0
2016-03-30,38.071,38.436,37.982,38.259,0,0
2016-03-31,38.259,38.259,37.528,37.893,0,0
2016-04-01,37.528,37.528,37.341,37.341,0,0
2016-04-04,37.617,38.259,37.617,38.259,0,0
2016-04-05,38.259,38.259,38.259,38.259,0,0
2016-04-06,38.259,38.259,38.16,38.16,0,0
2016-04-07,38.259,38.259,37.074,37.074,0,0
2016-04-08,37.341,37.341,36.887,36.887,0,0
2016-04-11,36.887,37.341,34.972,37.341,0,0
2016-04-12,37.439,37.439,37.439,37.439,0,0
2016-04-13,37.528,38.071,37.528,37.795,0,0
2016-04-14,37.795,37.795,37.795,37.795,0,0
2016-04-15,37.982,37.982,37.982,37.982,0,0
2016-04-18,38.525,38.525,38.525,38.525,0,0
2016-04-19,37.982,38.259,37.795,37.795,0,0
2016-04-20,37.982,37.982,37.341,37.341,0,0
2016-04-21,37.341,37.341,37.341,37.341,0,0
2016-04-22,37.341,40.804,37.341,40.074,0,0
2016-04-25,40.074,40.528,40.074,40.528,0,0
2016-04-26,41.258,41.347,41.258,41.347,0,0
2016-04-27,41.347,41.347,40.992,41.258,0,0
2016-04-28,40.992,41.258,40.992,41.258,0,0
2016-04-29,40.992,40.992,40.074,40.893,0,0
2016-05-02,40.992,41.258,40.992,41.258,0,0
2016-05-04,41.258,41.535,41.258,41.535,0,0
2016-05-05,41.535,41.535,41.535,41.535,0,0
2016-05-06,41.535,41.535,41.446,41.535,0,0
2016-05-09,41.9,42.176,41.9,42.176,0,0
2016-05-10,42.176,43.627,42.176,43.173,0,0
2016-05-11,43.173,43.173,43.173,43.173,0,0
2016-05-12,43.449,43.538,42.995,43.262,0,0
2016-05-13,43.627,43.627,41.712,42.63,0,0
2016-05-16,41.446,41.535,39.985,40.716,0,0
2016-05-17,40.627,40.893,39.709,40.893,0,0
2016-05-18,40.992,40.992,40.528,40.528,0,0
2016-05-19,40.528,40.528,40.439,40.439,0,0
2016-05-20,40.439,40.439,40.439,40.439,0,0
2016-05-23,40.074,40.074,39.344,40.074,0,0
2016-05-24,40.074,40.074,40.074,40.074,0,0
2016-05-25,40.074,40.074,40.074,40.074,0,0
2016-05-27,40.074,40.074,40.074,40.074,0,0
2016-05-30,40.074,40.074,40.074,40.074,0,0
2016-05-31,40.074,40.074,40.074,40.074,0,0
2016-06-01,40.074,40.074,38.071,39.255,0,0
2016-06-02,39.344,39.344,39.344,39.344,0,0
2016-06-03,39.166,39.166,37.163,37.706,0,0
2016-06-06,37.706,37.706,37.163,37.163,0,0
2016-06-07,37.163,37.163,35.703,36.709,0,0
2016-06-08,36.709,37.163,35.614,36.433,0,0
2016-06-09,36.433,36.433,36.157,36.157,0,0
2016-06-10,36.433,36.798,36.255,36.798,0,0
2016-06-13,36.255,36.433,36.157,36.433,0,0
2016-06-14,35.525,35.525,34.607,34.607,0,0
2016-06-15,34.607,34.607,34.153,34.153,0,0
2016-06-16,34.153,34.153,34.065,34.065,0,0
2016-06-17,33.887,33.887,33.611,33.699,0,0
2016-06-20,33.788,33.788,33.246,33.246,0,0
2016-06-21,33.788,33.788,33.246,33.246,0,0
2016-06-22,33.522,33.699,33.157,33.699,0,0
2016-06-23,33.334,34.252,33.334,34.252,0,0
2016-06-24,31.884,34.607,30.236,34.607,0,0
2016-06-27,33.976,34.065,33.246,34.065,0,0
2016-06-28,34.252,34.519,34.252,34.519,0,0
2016-06-29,37.94,37.94,34.89,36,0,0
2016-06-30,36,36,35.81,35.81,0,0
2016-07-01,35.81,36.92,35.81,36.92,0,0
2016-07-04,36.74,36.74,36.74,36.74,0,0
2016-07-05,36.74,36.92,36.74,36.92,0,0
2016-07-06,36.92,36.92,35.54,35.54,0,0
2016-07-07,36.37,36.37,36.37,36.37,0,0
2016-07-08,36.27,36.27,36.27,36.27,0,0
2016-07-11,36.27,36.27,36.27,36.27,0,0
2016-07-12,36.27,36.27,36.27,36.27,0,0
2016-07-13,36.46,37.84,36.37,37.84,0,0
2016-07-14,37.84,37.84,36.92,36.92,0,0
2016-07-15,36.46,36.74,36.46,36.55,0,0
2016-07-18,36.55,36.55,36,36,0,0
2016-07-19,36,36,35.91,35.91,0,0
2016-07-20,35.72,35.72,35.72,35.72,0,0
2016-07-21,35.35,35.35,35.17,35.17,0,0
2016-07-22,35.35,35.35,34.43,34.89,0,0
2016-07-25,34.8,35.07,34.8,35.07,0,0
2016-07-26,34.8,35.07,34.8,35.07,0,0
2016-07-27,35.17,35.54,35.17,35.54,0,0
2016-07-28,35.17,35.35,34.52,35.35,0,0
2016-07-29,35.35,35.35,35.35,35.35,0,0
2016-08-01,35.44,35.44,35.35,35.35,0,0
2016-08-02,35.35,35.54,34.24,35.54,0,0
2016-08-03,35.35,35.35,34.15,34.98,0,0
2016-08-04,34.98,34.98,34.98,34.98,0,0
2016-08-05,34.98,34.98,34.06,34.06,0,0
2016-08-08,34.15,34.15,33.6,34.06,0,0
2016-08-09,34.15,34.15,33.69,33.69,0,0
2016-08-10,33.87,33.87,33.87,33.87,0,0
2016-08-11,33.87,34.24,33.87,34.24,0,0
2016-08-12,34.34,36,34.34,36,0,0
2016-08-16,35.81,36.46,35.81,36.46,0,0
2016-08-17,36.46,36.92,36.46,36.83,0,0
2016-08-18,36.46,36.46,36,36,0,0
2016-08-19,36,36,36,36,0,0
2016-08-24,35.81,35.81,35.54,35.81,0,0
2016-08-25,36,36,36,36,0,0
2016-08-26,35.54,35.54,34.61,34.61,0,0
2016-08-30,35.07,35.07,35.07,35.07,0,0
2016-08-31,35.07,35.07,35.07,35.07,0,0
2016-09-01,35.07,35.07,34.61,34.61,0,0
2016-09-02,34.34,34.34,33.41,33.41,0,0
2016-09-05,33.23,33.41,32.49,32.77,0,0
2016-09-06,33.23,33.23,32.31,32.77,0,0
2016-09-07,32.67,33.32,32.67,33.32,0,0
2016-09-08,33.51,33.51,33.51,33.51,0,0
2016-09-09,33.51,33.51,32.31,32.49,0,0
2016-09-12,31.94,31.94,31.94,31.94,0,0
2016-09-13,31.84,31.84,31.11,31.84,0,0
2016-09-14,31.01,31.01,30.92,31.01,0,0
2016-09-15,31.29,31.29,31.29,31.29,0,0
2016-09-16,31.29,31.38,31.29,31.38,0,0
2016-09-19,31.38,31.84,31.11,31.84,0,0
2016-09-20,30.92,31.38,30.64,31.38,0,0
2016-09-21,31.29,31.38,31.29,31.38,0,0
2016-09-22,31.38,31.38,31.38,31.38,0,0
2016-09-23,31.29,31.29,30.46,31.01,0,0
2016-09-26,30.92,30.92,30.92,30.92,0,0
2016-09-27,30.46,30.83,30.46,30.83,0,0
2016-09-28,30.46,30.83,30.37,30.83,0,0
2016-09-29,30.83,30.83,30.74,30.74,0,0
2016-09-30,30.74,30.74,30.74,30.74,0,0
2016-10-03,30.83,30.83,30.74,30.74,0,0
2016-10-04,30.83,30.83,30.64,30.64,0,0
2016-10-05,30.83,30.83,30.83,30.83,0,0
2016-10-06,30.83,30.83,30.64,30.64,0,0
2016-10-07,30.64,30.64,30.55,30.64,0,0
2016-10-10,30.46,30.74,30.46,30.74,0,0
2016-10-11,30.74,30.74,30.46,30.46,0,0
2016-10-12,30.46,30.46,29.81,30,0,0
2016-10-13,30,30,30,30,0,0
2016-10-14,30,30,29.91,30,0,0
2016-10-17,29.72,29.72,27.23,29.54,0,0
2016-10-21,30.37,30.37,29.54,29.54,0,0
2016-10-24,29.54,29.54,29.54,29.54,0,0
2016-10-25,30.37,30.37,30,30,0,0
2016-10-26,30,30,30,30,0,0
2016-10-27,28.98,29.54,28.98,29.54,0,0
2016-10-31,29.54,29.54,28.8,29.54,0,0
2016-11-03,29.26,29.54,28.15,28.15,0,0
2016-11-04,29.54,29.54,28.24,29.54,0,0
2016-11-09,29.26,29.54,28.89,29.54,0,0
2016-11-10,28.61,30.09,28.61,30.09,0,0
2016-11-14,29.07,30,28.89,30,0,0
2016-11-15,28.98,29.91,28.98,29.91,0,0
2016-11-16,29.91,29.91,29.91,29.91,0,0
2016-11-17,29.91,29.91,28.61,29.17,0,0
2016-11-18,29.17,29.17,29.17,29.17,0,0
2016-11-21,28.98,29.07,28.43,29.07,0,0
2016-11-22,29.07,29.07,29.07,29.07,0,0
2016-11-23,29.07,29.07,29.07,29.07,0,0
2016-11-24,29.07,29.07,29.07,29.07,0,0
2016-11-25,29.07,29.07,27.41,28.52,0,0
2016-11-28,28.52,29.35,27.41,28.61,0,0
2016-11-29,28.61,28.61,28.15,28.61,0,0
2016-11-30,28.61,28.61,28.61,28.61,0,0
2016-12-01,28.06,28.61,27.78,28.61,0,0
2016-12-02,28.34,29.07,28.34,29.07,0,0
2016-12-05,29.35,29.35,28.43,29.26,0,0
2016-12-06,29.35,29.35,29.26,29.26,0,0
2016-12-07,29.35,29.35,27.87,28.8,0,0
2016-12-08,28.98,29.07,27.69,29.07,0,0
2016-12-09,29.17,30.27,28.98,28.98,0,0
2016-12-12,28.98,29.35,28.98,29.35,0,0
2016-12-13,28.98,29.26,28.98,29.07,0,0
2016-12-14,29.07,29.07,28.89,28.89,0,0
2016-12-15,29.07,29.07,28.89,28.98,0,0
2016-12-16,28.61,28.61,27.69,28.15,0,0
2016-12-19,28.34,28.34,27.14,27.69,0,0
2016-12-20,27.6,27.6,27.14,27.14,0,0
2016-12-21,26.95,26.95,25.38,26.67,0,0
2016-12-22,26.58,26.58,25.11,25.38,0,0
2016-12-23,25.29,25.66,24,25.66,0,0
2016-12-27,25.01,25.75,24.74,25.48,0,0
2016-12-28,25.48,25.48,24.92,25.48,0,0
2016-12-29,25.48,25.48,25.48,25.48,0,0
2016-12-30,25.11,26.77,25.11,26.77,0,0
2017-01-02,27.6,27.6,25.94,26.4,0,0
2017-01-03,26.4,26.67,26.4,26.67,0,0
2017-01-04,26.67,27.04,25.84,25.94,0,0
2017-01-05,26.03,26.21,25.84,25.94,0,0
2017-01-09,26.21,26.21,25.75,25.75,0,0
2017-01-10,25.75,25.84,25.38,25.75,0,0
2017-01-11,25.94,26.03,25.57,26.03,0,0
2017-01-12,26.03,26.03,25.57,25.84,0,0
2017-01-13,25.94,25.94,25.57,25.84,0,0
2017-01-16,25.94,25.94,25.48,25.48,0,0
2017-01-17,25.48,25.48,25.48,25.48,0,0
2017-01-18,25.48,25.48,24.46,25.29,0,0
2017-01-19,24.92,25.38,24.55,25.38,0,0
2017-01-20,25.29,25.57,25.29,25.57,0,0
2017-01-23,25.57,25.57,25.48,25.48,0,0
2017-01-24,25.38,25.38,25.38,25.38,0,0
2017-01-25,25.38,25.66,25.38,25.66,0,0
2017-01-26,25.66,26.31,25.2,26.31,0,0
2017-01-27,26.21,26.21,24.55,25.84,0,0
2017-01-30,25.84,25.84,25.84,25.84,0,0
2017-01-31,26.03,26.03,25.94,25.94,0,0
2017-02-01,25.84,25.84,25.29,25.57,0,0
2017-02-02,25.48,25.84,25.48,25.66,0,0
2017-02-03,25.75,25.75,25.57,25.75,0,0
2017-02-06,25.75,25.75,25.01,25.01,0,0
2017-02-07,25.11,25.11,25.01,25.01,0,0
2017-02-08,25.29,25.29,24.46,24.83,0,0
2017-02-09,24.46,24.92,23.63,23.81,0,0
2017-02-10,24.46,24.46,24.37,24.46,0,0
2017-02-13,24.55,24.55,24.46,24.46,0,0
2017-02-14,24.55,24.55,24.46,24.46,0,0
2017-02-15,24.46,24.46,24.46,24.46,0,0
2017-02-16,24.46,24.46,24.46,24.46,0,0
2017-02-17,24.64,24.64,24.55,24.55,0,0
2017-02-20,24.46,24.46,23.91,24,0,0
2017-02-21,23.91,24.46,23.91,24.46,0,0
2017-02-22,24.46,25.29,24.46,24.55,0,0
2017-02-23,24.74,25.38,24.74,25.01,0,0
2017-02-24,25.01,25.01,24.83,24.83,0,0
2017-02-27,24.74,25.01,24.74,25.01,0,0
2017-02-28,24.92,25.11,24.92,25.01,0,0
2017-03-01,25.2,25.2,24.46,24.46,0,0
2017-03-02,24.55,24.64,24.46,24.64,0,0
2017-03-03,24.46,24.83,24.46,24.83,0,0
2017-03-06,24.64,25.2,24.64,24.83,0,0
2017-03-07,25.11,25.11,25.01,25.01,0,0
2017-03-08,25.01,25.38,25.01,25.29,0,0
2017-03-09,25.11,25.11,24.37,24.37,0,0
2017-03-10,24.18,24.92,24.18,24.92,0,0
2017-03-13,24.74,24.74,24.46,24.46,0,0
2017-03-14,24.55,24.55,24.37,24.37,0,0
2017-03-15,24.37,24.37,24.37,24.37,0,0
2017-03-16,24.55,24.55,24,24,0,0
2017-03-17,24,24,23.63,24,0,0
2017-03-20,23.63,23.72,22.98,23.72,0,0
2017-03-21,24.18,26.58,24.18,26.31,0,0
2017-03-22,25.84,26.03,25.11,26.03,0,0
2017-03-23,26.03,26.03,25.11,26.03,0,0
2017-03-24,26.03,26.21,25.75,25.84,0,0
2017-03-27,25.84,27.51,25.38,27.51,0,0
2017-03-28,27.78,28.06,26.4,26.67,0,0
2017-03-29,26.67,26.67,26.58,26.58,0,0
2017-03-30,26.49,27.32,26.49,27.32,0,0
2017-03-31,27.41,27.41,26.58,26.95,0,0
2017-04-03,27.32,27.32,27.14,27.14,0,0
2017-04-04,27.14,27.87,26.49,27.69,0,0
2017-04-05,27.51,30.92,26.77,30.92,0,0
2017-04-06,31.2,31.2,29.54,30.74,0,0
2017-04-07,30.74,31.38,30.27,30.27,0,0
2017-04-10,31.2,31.2,30,30,0,0
2017-04-11,29.35,29.44,28.71,29.17,0,0
2017-04-12,28.89,29.44,27.78,29.44,0,0
2017-04-13,29.35,29.35,28.15,28.71,0,0
2017-04-18,28.61,28.61,27.41,28.61,0,0
2017-04-19,28.34,29.26,27.97,29.26,0,0
2017-04-20,29.54,29.54,28.61,29.07,0,0
2017-04-21,28.43,29.07,28.34,29.07,0,0
2017-04-24,28.8,29.54,28.8,29.54,0,0
2017-04-25,29.54,29.54,29.54,29.54,0,0
2017-04-26,28.52,30,28.52,30,0,0
2017-04-27,30,30.18,30,30.18,0,0
2017-04-28,29.54,30.27,29.54,30.27,0,0
2017-05-02,30.27,30.46,29.63,29.63,0,0
2017-05-04,29.54,29.54,27.78,28.61,0,0
2017-05-05,28.71,28.71,27.23,28.61,0,0
2017-05-08,28.71,28.71,27.78,27.78,0,0
2017-05-09,28.34,28.34,28.34,28.34,0,0
2017-05-10,28.71,28.71,28.71,28.71,0,0
2017-05-11,28.61,28.8,27.78,27.78,0,0
2017-05-12,27.78,27.87,27.69,27.69,0,0
2017-05-15,27.69,27.69,27.69,27.69,0,0
2017-05-16,27.69,27.78,27.69,27.78,0,0
2017-05-17,27.78,27.78,27.69,27.69,0,0
2017-05-19,27.41,27.69,27.14,27.69,0,0
2017-05-22,27.69,27.69,27.32,27.32,0,0
2017-05-23,27.69,27.69,27.69,27.69,0,0
2017-05-24,27.69,27.69,27.69,27.69,0,0
2017-05-25,27.69,27.87,27.69,27.87,0,0
2017-05-26,27.87,27.87,27.69,27.69,0,0
2017-05-29,27.69,27.69,27.69,27.69,0,0
2017-05-30,27.51,27.51,27.23,27.23,0,0
2017-05-31,27.23,27.23,27.23,27.23,0,0
2017-06-01,27.69,27.69,27.69,27.69,0,0
2017-06-02,27.69,27.69,27.69,27.69,0,0
2017-06-05,27.69,27.69,27.23,27.23,0,0
2017-06-06,27.69,27.78,27.69,27.78,0,0
2017-06-07,27.51,27.78,26.77,27.78,0,0
2017-06-08,27.69,27.69,27.69,27.69,0,0
2017-06-09,27.69,27.69,27.69,27.69,0,0
2017-06-12,27.6,27.6,27.51,27.51,0,0
2017-06-13,27.6,27.6,27.6,27.6,0,0
2017-06-14,27.6,27.6,26.77,27.32,0,0
2017-06-16,27.32,27.32,27.32,27.32,0,0
2017-06-19,26.67,27.32,26.58,27.32,0,0
2017-06-22,26.58,26.58,26.58,26.58,0,0
2017-06-23,26.58,26.58,25.84,26.12,0,0
2017-06-26,26.12,26.12,25.84,26.12,0,0
2017-06-27,26.31,26.31,26.31,26.31,0,0
2017-06-28,26.31,27.41,26.03,27.41,0,0
2017-06-30,27.41,27.41,27.32,27.32,0,0
2017-07-03,27.32,28.34,27.32,28.15,0,0
2017-07-04,28.15,28.15,28.15,28.15,0,0
2017-07-05,27.97,27.97,27.97,27.97,0,0
2017-07-06,27.87,27.87,27.41,27.41,0,0
2017-07-07,27.6,27.6,27.6,27.6,0,0
2017-07-10,27.6,27.69,27.6,27.69,0,0
2017-07-11,27.69,27.69,25.38,26.49,0,0
2017-07-12,25.11,26.67,25.11,26.67,0,0
2017-07-13,25.84,26.58,25.84,26.58,0,0
2017-07-14,26.58,26.58,26.4,26.4,0,0
2017-07-17,26.77,26.77,26.77,26.77,0,0
2017-07-18,26.12,26.77,26.12,26.77,0,0
2017-07-20,26.86,26.86,26.86,26.86,0,0
2017-07-21,26.86,26.86,26.86,26.86,0,0
2017-07-24,26.86,26.86,26.86,26.86,0,0
2017-07-25,26.86,26.86,26.77,26.77,0,0
2017-07-28,26.58,26.58,26.4,26.4,0,0
2017-07-31,25.84,25.84,25.84,25.84,0,0
2017-08-02,25.84,25.84,25.84,25.84,0,0
2017-08-04,25.75,25.75,25.57,25.57,0,0
2017-08-08,25.57,25.57,25.57,25.57,0,0
2017-08-09,25.57,25.57,24.92,24.92,0,0
2017-08-10,25.01,26.49,25.01,25.84,0,0
2017-08-11,25.01,26.77,25.01,26.77,0,0
2017-08-14,26.67,26.67,26.49,26.49,0,0
2017-08-16,26.31,26.31,26.31,26.31,0,0
2017-08-17,26.31,26.31,25.38,25.38,0,0
2017-08-18,26.03,26.03,24,25.66,0,0
2017-08-21,25.48,25.48,24.28,25.2,0,0
2017-08-22,25.2,25.2,24.55,24.55,0,0
2017-08-24,24.64,25.94,23.17,25.94,0,0
2017-08-25,25.94,26.86,25.94,26.86,0,0
2017-08-28,25.66,27.14,25.66,27.14,0,0
2017-08-29,26.58,26.58,26.58,26.58,0,0
2017-08-30,26.4,26.58,25.84,26.58,0,0
2017-08-31,26.58,26.77,26.12,26.49,0,0
2017-09-01,25.84,26.77,25.38,26.77,0,0
2017-09-07,26.77,26.77,25.38,26.67,0,0
2017-09-08,26.77,26.77,26.77,26.77,0,0
2017-09-11,26.77,26.77,26.77,26.77,0,0
2017-09-12,26.77,26.77,26.77,26.77,0,0
2017-09-13,26.49,26.49,25.66,26.49,0,0
2017-09-14,26.31,26.49,26.31,26.49,0,0
2017-09-15,26.12,26.58,26.12,26.58,0,0
2017-09-18,26.58,26.86,26.58,26.86,0,0
2017-09-19,26.4,26.4,26.4,26.4,0,0
2017-09-20,26.31,26.31,25.94,25.94,0,0
2017-09-21,25.75,26.77,25.75,26.77,0,0
2017-09-22,26.86,26.86,26.86,26.86,0,0
2017-09-25,26.86,26.86,26.86,26.86,0,0
2017-09-26,26.86,26.86,26.31,26.77,0,0
2017-09-27,26.86,26.86,26.86,26.86,0,0
2017-09-28,26.86,26.86,26.86,26.86,0,0
2017-09-29,27.6,27.6,27.6,27.6,0,0
2017-10-02,27.6,27.6,26.67,27.41,0,0
2017-10-03,27.14,27.41,25.57,27.41,0,0
2017-10-04,27.69,27.69,26.95,27.32,0,0
2017-10-05,27.04,27.04,27.04,27.04,0,0
2017-10-06,26.77,26.95,26.03,26.95,0,0
2017-10-09,27.04,27.04,27.04,27.04,0,0
2017-10-10,26.4,27.04,25.75,27.04,0,0
2017-10-11,27.14,27.32,27.14,27.32,0,0
2017-10-12,26.86,26.86,26.86,26.86,0,0
2017-10-13,27.32,27.32,26.12,26.12,0,0
2017-10-16,27.14,27.14,25.94,27.04,0,0
2017-10-17,27.14,27.14,27.14,27.14,0,0
2017-10-18,26.21,26.67,25.94,26.67,0,0
2017-10-19,26.58,26.58,26.58,26.58,0,0
2017-10-20,25.57,26.58,25.57,26.58,0,0
2017-10-23,26.58,26.58,25.29,26.31,0,0
2017-10-24,26.4,26.4,26.4,26.4,0,0
2017-10-25,26.31,26.31,26.31,26.31,0,0
2017-10-26,26.31,26.31,25.94,25.94,0,0
2017-10-27,25.94,25.94,25.84,25.84,0,0
2017-10-30,25.66,26.31,25.66,26.31,0,0
2017-10-31,26.4,26.67,25.84,26.67,0,0
2017-11-07,26.4,26.86,25.94,26.86,0,0
2017-11-09,26.4,26.86,25.38,26.58,0,0
2017-11-10,25.84,26.58,25.84,26.58,0,0
2017-11-13,26.21,26.58,25.84,26.58,0,0
2017-11-14,25.48,26.58,25.11,26.58,0,0
2017-11-15,26.77,26.77,25.84,26.77,0,0
2017-11-16,26.77,26.77,26.77,26.77,0,0
2017-11-17,26.4,26.77,25.75,26.58,0,0
2017-11-20,26.58,26.58,25.2,25.2,0,0
2017-11-21,25.11,25.29,24.46,25.29,0,0
2017-11-22,25.29,25.29,24.09,24.46,0,0
2017-11-23,24.83,24.83,24.28,24.28,0,0
2017-11-24,24.28,24.92,24.09,24.09,0,0
2017-11-27,24.46,24.74,24.46,24.74,0,0
2017-11-29,24.74,24.74,23.35,24,0,0
2017-11-30,23.54,24.18,23.54,24.18,0,0
2017-12-01,24.18,24.18,23.26,23.26,0,0
2017-12-04,23.17,23.17,22.52,22.52,0,0
2017-12-05,22.52,22.52,22.52,22.52,0,0
2017-12-06,22.15,22.15,21.78,21.78,0,0
2017-12-07,21.78,21.78,20.95,20.95,0,0
2017-12-08,20.68,22.06,20.31,21.97,0,0
2017-12-11,21.23,21.97,20.68,21.23,0,0
2017-12-12,21.51,21.69,21.23,21.23,0,0
2017-12-13,21.14,21.97,20.95,21.97,0,0
2017-12-14,22.06,22.06,21.14,21.23,0,0
2017-12-15,21.14,21.32,20.77,20.77,0,0
2017-12-18,20.77,22.15,20.77,22.15,0,0
2017-12-19,22.34,22.34,21.41,21.41,0,0
2017-12-20,21.23,22.71,21.23,22.43,0,0
2017-12-21,21.97,22.52,21.97,22.34,0,0
2017-12-22,22.06,23.44,22.06,23.26,0,0
2017-12-27,22.15,23.17,22.15,22.98,0,0
2017-12-28,22.98,22.98,22.61,22.89,0,0
2017-12-29,22.89,22.89,22.71,22.71,0,0
2018-01-03,23.44,23.44,23.44,23.44,0,0
2018-01-04,23.35,24,23.08,24,0,0
2018-01-05,24.18,24.64,23.35,24.64,0,0
2018-01-08,25.48,25.48,24,25.2,0,0
2018-01-09,24,24.92,23.17,24.92,0,0
2018-01-10,24.92,24.92,23.26,23.26,0,0
2018-01-11,23.26,23.26,22.71,22.71,0,0
2018-01-12,23.08,23.08,23.08,23.08,0,0
2018-01-15,23.08,23.08,23.08,23.08,0,0
2018-01-16,22.8,23.35,22.8,22.8,0,0
2018-01-17,23.08,23.08,23.08,23.08,0,0
2018-01-18,22.89,23.17,22.89,22.89,0,0
2018-01-19,22.89,22.89,22.89,22.89,0,0
2018-01-22,23.08,23.08,22.71,22.71,0,0
2018-01-23,22.8,22.8,22.8,22.8,0,0
2018-01-25,22.98,22.98,22.98,22.98,0,0
2018-01-30,22.71,22.89,22.43,22.89,0,0
2018-02-01,23.08,23.54,22.43,23.08,0,0
2018-02-05,22.61,22.98,22.24,22.98,0,0
2018-02-06,21.97,22.15,21.78,22.15,0,0
2018-02-07,21.6,22.71,21.6,22.71,0,0
2018-02-09,22.43,22.71,22.15,22.15,0,0
2018-02-12,22.15,23.72,22.15,23.72,0,0
2018-02-13,23.81,23.81,22.43,22.43,0,0
2018-02-14,22.89,22.98,22.89,22.98,0,0
2018-02-15,23.08,23.08,23.08,23.08,0,0
2018-02-16,23.08,23.08,23.08,23.08,0,0
2018-02-19,22.98,23.35,22.98,23.35,0,0
2018-02-20,23.35,23.35,23.08,23.08,0,0
2018-02-21,23.08,23.08,22.71,22.71,0,0
2018-02-26,22.43,23.54,22.43,23.54,0,0
2018-02-27,23.54,23.54,23.54,23.54,0,0
2018-03-06,23.08,23.54,23.08,23.08,0,0
2018-03-07,23.54,23.54,23.08,23.54,0,0
2018-03-08,23.54,23.54,23.08,23.08,0,0
2018-03-09,23.08,23.08,23.08,23.08,0,0
2018-03-12,23.54,23.54,23.54,23.54,0,0
2018-03-14,23.08,23.08,23.08,23.08,0,0
2018-03-15,22.89,22.89,22.89,22.89,0,0
2018-03-19,23.08,23.08,22.61,22.61,0,0
2018-03-20,22.24,22.24,22.24,22.24,0,0
2018-03-21,22.34,22.34,22.34,22.34,0,0
2018-03-22,22.34,22.34,22.34,22.34,0,0
2018-03-23,22.34,22.34,22.34,22.34,0,0
2018-03-26,21.78,22.34,21.78,22.34,0,0
2018-03-27,22.34,22.34,22.34,22.34,0,0
2018-03-28,22.34,22.34,22.34,22.34,0,0
2018-03-29,22.34,22.34,22.34,22.34,0,0
